emg1,emg2,emg3,emg4
0.031361295841634274,-0.8646952174603939,0.08388020098209381,-2.050475592724979
0.031361295841634274,-0.8646952174603939,0.08388020098209381,-2.055745953693986
0.03663395484909415,-0.8646952174603939,0.08388020098209381,-2.055745953693986
0.031361295841634274,-0.8594246627762914,0.08388020098209381,-2.055745953693986
0.03663395484909415,-0.8594246627762914,0.08388020098209381,-2.050475592724979
0.03663395484909415,-0.8594246627762914,0.08388020098209381,-2.050475592724979
0.03663395484909415,-0.8646952174603939,0.08388020098209381,-2.045205231755972
0.03663395484909415,-0.8699657721444964,0.0786111643537879,-2.045205231755972
0.03663395484909415,-0.8699657721444964,0.08388020098209381,-2.050475592724979
0.03663395484909415,-0.8646952174603939,0.08388020098209381,-2.050475592724979
0.03663395484909415,-0.8646952174603939,0.08388020098209381,-2.055745953693986
0.03663395484909415,-0.8646952174603939,0.08388020098209381,-2.055745953693986
0.03663395484909415,-0.8646952174603939,0.08388020098209381,-2.050475592724979
0.03663395484909415,-0.8646952174603939,0.08388020098209381,-2.045205231755972
0.03663395484909415,-0.8646952174603939,0.08388020098209381,-2.039934870786965
0.031361295841634274,-0.8646952174603939,0.08388020098209381,-2.039934870786965
0.03663395484909415,-0.8699657721444964,0.08388020098209381,-2.045205231755972
0.031361295841634274,-0.8699657721444964,0.08388020098209381,-2.045205231755972
0.031361295841634274,-0.8699657721444964,0.0786111643537879,-2.045205231755972
0.031361295841634274,-0.8699657721444964,0.08388020098209381,-2.050475592724979
0.031361295841634274,-0.875236326828599,0.08388020098209381,-2.055745953693986
0.03663395484909415,-0.875236326828599,0.08388020098209381,-2.055745953693986
0.03663395484909415,-0.875236326828599,0.08388020098209381,-2.061016314662993
0.031361295841634274,-0.875236326828599,0.0786111643537879,-2.061016314662993
0.03663395484909415,-0.8805068815127015,0.08388020098209381,-2.061016314662993
0.03663395484909415,-0.8805068815127015,0.0786111643537879,-2.061016314662993
0.03663395484909415,-0.8910479908809066,0.0786111643537879,-2.061016314662993
0.03663395484909415,-0.8910479908809066,0.08388020098209381,-2.061016314662993
0.03663395484909415,-0.8963185455650091,0.08388020098209381,-2.066286675632
0.03663395484909415,-0.9015891002491117,0.0786111643537879,-2.061016314662993
0.03663395484909415,-0.8963185455650091,0.08388020098209381,-2.066286675632
0.03663395484909415,-0.8963185455650091,0.0786111643537879,-2.066286675632
0.03663395484909415,-0.8910479908809066,0.08388020098209381,-2.071557036601007
0.031361295841634274,-0.8910479908809066,0.08388020098209381,-2.071557036601007
0.03663395484909415,-0.885777436196804,0.08388020098209381,-2.071557036601007
0.03663395484909415,-0.8805068815127015,0.08388020098209381,-2.076827397570014
0.03663395484909415,-0.875236326828599,0.08388020098209381,-2.071557036601007
0.03663395484909415,-0.8805068815127015,0.08388020098209381,-2.071557036601007
0.03663395484909415,-0.8805068815127015,0.08388020098209381,-2.066286675632
0.03663395484909415,-0.8805068815127015,0.08388020098209381,-2.071557036601007
0.03663395484909415,-0.8805068815127015,0.08388020098209381,-2.066286675632
0.03663395484909415,-0.8805068815127015,0.08388020098209381,-2.071557036601007
0.03663395484909415,-0.8805068815127015,0.08388020098209381,-2.071557036601007
0.031361295841634274,-0.8805068815127015,0.08388020098209381,-2.076827397570014
0.03663395484909415,-0.8805068815127015,0.08388020098209381,-2.071557036601007
0.03663395484909415,-0.8805068815127015,0.0786111643537879,-2.066286675632
0.031361295841634274,-0.875236326828599,0.0786111643537879,-2.066286675632
0.03663395484909415,-0.8699657721444964,0.0786111643537879,-2.066286675632
0.03663395484909415,-0.8699657721444964,0.08388020098209381,-2.071557036601007
0.03663395484909415,-0.8646952174603939,0.08388020098209381,-2.071557036601007
0.031361295841634274,-0.8646952174603939,0.08388020098209381,-2.071557036601007
0.03663395484909415,-0.8594246627762914,0.08388020098209381,-2.071557036601007
0.03663395484909415,-0.8594246627762914,0.0786111643537879,-2.066286675632
0.03663395484909415,-0.8646952174603939,0.08388020098209381,-2.071557036601007
0.03663395484909415,-0.8699657721444964,0.08388020098209381,-2.071557036601007
0.03663395484909415,-0.8699657721444964,0.08388020098209381,-2.066286675632
0.03663395484909415,-0.8699657721444964,0.08388020098209381,-2.071557036601007
0.03663395484909415,-0.8699657721444964,0.08388020098209381,-2.066286675632
0.03663395484909415,-0.8646952174603939,0.08388020098209381,-2.066286675632
0.03663395484909415,-0.8699657721444964,0.08388020098209381,-2.066286675632
0.03663395484909415,-0.8646952174603939,0.08388020098209381,-2.066286675632
0.03663395484909415,-0.8646952174603939,0.08388020098209381,-2.061016314662993
0.03663395484909415,-0.8646952174603939,0.08388020098209381,-2.061016314662993
0.03663395484909415,-0.8646952174603939,0.08388020098209381,-2.055745953693986
0.031361295841634274,-0.8699657721444964,0.0786111643537879,-2.061016314662993
0.03663395484909415,-0.8699657721444964,0.08388020098209381,-2.061016314662993
0.03663395484909415,-0.8699657721444964,0.0786111643537879,-2.066286675632
0.03663395484909415,-0.8699657721444964,0.08388020098209381,-2.066286675632
0.03663395484909415,-0.8646952174603939,0.08388020098209381,-2.066286675632
0.031361295841634274,-0.8594246627762914,0.08388020098209381,-2.061016314662993
0.03663395484909415,-0.8594246627762914,0.0786111643537879,-2.066286675632
0.03663395484909415,-0.8594246627762914,0.08388020098209381,-2.066286675632
0.03663395484909415,-0.8646952174603939,0.08388020098209381,-2.061016314662993
0.031361295841634274,-0.8594246627762914,0.08388020098209381,-2.061016314662993
0.03663395484909415,-0.8594246627762914,0.08388020098209381,-2.061016314662993
0.031361295841634274,-0.8594246627762914,0.08388020098209381,-2.066286675632
0.03663395484909415,-0.8594246627762914,0.08388020098209381,-2.066286675632
0.03663395484909415,-0.8594246627762914,0.08388020098209381,-2.066286675632
0.03663395484909415,-0.8594246627762914,0.08388020098209381,-2.071557036601007
0.031361295841634274,-0.8594246627762914,0.08388020098209381,-2.061016314662993
0.031361295841634274,-0.8646952174603939,0.08388020098209381,-2.055745953693986
0.031361295841634274,-0.8646952174603939,0.08388020098209381,-2.050475592724979
0.03663395484909415,-0.8646952174603939,0.08388020098209381,-2.045205231755972
0.03663395484909415,-0.8646952174603939,0.08388020098209381,-2.045205231755972
0.03663395484909415,-0.8646952174603939,0.08388020098209381,-2.045205231755972
0.03663395484909415,-0.8646952174603939,0.08388020098209381,-2.045205231755972
0.03663395484909415,-0.8594246627762914,0.08388020098209381,-2.050475592724979
0.03663395484909415,-0.8594246627762914,0.08388020098209381,-2.050475592724979
0.03663395484909415,-0.8594246627762914,0.08388020098209381,-2.061016314662993
0.03663395484909415,-0.8594246627762914,0.08388020098209381,-2.055745953693986
0.03663395484909415,-0.8594246627762914,0.08388020098209381,-2.061016314662993
0.031361295841634274,-0.8594246627762914,0.08388020098209381,-2.061016314662993
0.03663395484909415,-0.8594246627762914,0.08388020098209381,-2.066286675632
0.03663395484909415,-0.8594246627762914,0.08388020098209381,-2.061016314662993
0.03663395484909415,-0.8594246627762914,0.0786111643537879,-2.066286675632
0.03663395484909415,-0.8594246627762914,0.08388020098209381,-2.066286675632
0.03663395484909415,-0.8646952174603939,0.08388020098209381,-2.066286675632
0.03663395484909415,-0.8646952174603939,0.0786111643537879,-2.066286675632
0.03663395484909415,-0.8594246627762914,0.0786111643537879,-2.071557036601007
0.03663395484909415,-0.8594246627762914,0.08388020098209381,-2.071557036601007
0.03663395484909415,-0.8594246627762914,0.08388020098209381,-2.071557036601007
0.03663395484909415,-0.8594246627762914,0.0786111643537879,-2.071557036601007
0.03663395484909415,-0.8646952174603939,0.08388020098209381,-2.076827397570014
0.03663395484909415,-0.8646952174603939,0.08388020098209381,-2.076827397570014
0.03663395484909415,-0.8594246627762914,0.08388020098209381,-2.071557036601007
0.03663395484909415,-0.8594246627762914,0.08388020098209381,-2.076827397570014
0.031361295841634274,-0.8646952174603939,0.08388020098209381,-2.076827397570014
0.03663395484909415,-0.8646952174603939,0.0786111643537879,-2.066286675632
0.03663395484909415,-0.8646952174603939,0.08388020098209381,-2.066286675632
0.03663395484909415,-0.8646952174603939,0.08388020098209381,-2.066286675632
0.031361295841634274,-0.8646952174603939,0.0786111643537879,-2.066286675632
0.03663395484909415,-0.8646952174603939,0.08388020098209381,-2.071557036601007
0.03663395484909415,-0.8699657721444964,0.08388020098209381,-2.071557036601007
0.03663395484909415,-0.8646952174603939,0.08388020098209381,-2.071557036601007
0.03663395484909415,-0.8699657721444964,0.0786111643537879,-2.066286675632
0.03663395484909415,-0.8699657721444964,0.08388020098209381,-2.066286675632
0.03663395484909415,-0.8699657721444964,0.0786111643537879,-2.066286675632
0.031361295841634274,-0.875236326828599,0.08388020098209381,-2.066286675632
0.03663395484909415,-0.8699657721444964,0.0786111643537879,-2.066286675632
0.03663395484909415,-0.875236326828599,0.08388020098209381,-2.061016314662993
0.031361295841634274,-0.875236326828599,0.08388020098209381,-2.061016314662993
0.03663395484909415,-0.8699657721444964,0.08388020098209381,-2.055745953693986
0.031361295841634274,-0.8699657721444964,0.08388020098209381,-2.055745953693986
0.03663395484909415,-0.8699657721444964,0.08388020098209381,-2.055745953693986
0.03663395484909415,-0.8699657721444964,0.08388020098209381,-2.050475592724979
0.03663395484909415,-0.8699657721444964,0.08388020098209381,-2.050475592724979
0.03663395484909415,-0.875236326828599,0.08388020098209381,-2.055745953693986
0.03663395484909415,-0.875236326828599,0.0786111643537879,-2.055745953693986
0.03663395484909415,-0.875236326828599,0.08388020098209381,-2.055745953693986
0.03663395484909415,-0.875236326828599,0.08388020098209381,-2.055745953693986
0.03663395484909415,-0.875236326828599,0.08388020098209381,-2.055745953693986
0.03663395484909415,-0.875236326828599,0.0786111643537879,-2.061016314662993
0.03663395484909415,-0.875236326828599,0.08388020098209381,-2.061016314662993
0.031361295841634274,-0.875236326828599,0.08388020098209381,-2.061016314662993
0.031361295841634274,-0.875236326828599,0.08388020098209381,-2.061016314662993
0.03663395484909415,-0.875236326828599,0.08388020098209381,-2.055745953693986
0.03663395484909415,-0.875236326828599,0.08388020098209381,-2.055745953693986
0.03663395484909415,-0.875236326828599,0.08388020098209381,-2.050475592724979
0.031361295841634274,-0.875236326828599,0.08388020098209381,-2.050475592724979
0.03663395484909415,-0.8699657721444964,0.08388020098209381,-2.050475592724979
0.03663395484909415,-0.8699657721444964,0.0786111643537879,-2.050475592724979
0.03663395484909415,-0.875236326828599,0.08388020098209381,-2.050475592724979
0.03663395484909415,-0.875236326828599,0.08388020098209381,-2.045205231755972
0.03663395484909415,-0.875236326828599,0.08388020098209381,-2.039934870786965
0.03663395484909415,-0.875236326828599,0.08388020098209381,-2.045205231755972
0.03663395484909415,-0.875236326828599,0.08388020098209381,-2.039934870786965
0.031361295841634274,-0.875236326828599,0.08388020098209381,-2.039934870786965
0.03663395484909415,-0.8699657721444964,0.08388020098209381,-2.039934870786965
0.03663395484909415,-0.875236326828599,0.08388020098209381,-2.039934870786965
0.03663395484909415,-0.875236326828599,0.08388020098209381,-2.045205231755972
0.03663395484909415,-0.875236326828599,0.08388020098209381,-2.045205231755972
0.03663395484909415,-0.875236326828599,0.08388020098209381,-2.045205231755972
0.03663395484909415,-0.875236326828599,0.08388020098209381,-2.045205231755972
0.03663395484909415,-0.8805068815127015,0.08388020098209381,-2.050475592724979
0.031361295841634274,-0.875236326828599,0.08388020098209381,-2.055745953693986
0.03663395484909415,-0.8805068815127015,0.08388020098209381,-2.055745953693986
0.031361295841634274,-0.875236326828599,0.08388020098209381,-2.055745953693986
0.03663395484909415,-0.875236326828599,0.08388020098209381,-2.055745953693986
0.03663395484909415,-0.875236326828599,0.08388020098209381,-2.055745953693986
0.03663395484909415,-0.8805068815127015,0.08388020098209381,-2.055745953693986
0.03663395484909415,-0.8805068815127015,0.08388020098209381,-2.061016314662993
0.03663395484909415,-0.8805068815127015,0.08388020098209381,-2.055745953693986
0.031361295841634274,-0.8805068815127015,0.0786111643537879,-2.061016314662993
0.03663395484909415,-0.8805068815127015,0.08388020098209381,-2.055745953693986
0.03663395484909415,-0.8805068815127015,0.08388020098209381,-2.055745953693986
0.031361295841634274,-0.8805068815127015,0.08388020098209381,-2.050475592724979
0.03663395484909415,-0.8805068815127015,0.08388020098209381,-2.045205231755972
0.03663395484909415,-0.8805068815127015,0.08388020098209381,-2.045205231755972
0.03663395484909415,-0.8805068815127015,0.08388020098209381,-2.039934870786965
0.03663395484909415,-0.8805068815127015,0.08388020098209381,-2.039934870786965
0.03663395484909415,-0.8805068815127015,0.08388020098209381,-2.045205231755972
0.03663395484909415,-0.8805068815127015,0.08388020098209381,-2.045205231755972
0.03663395484909415,-0.8805068815127015,0.08388020098209381,-2.045205231755972
0.03663395484909415,-0.8805068815127015,0.08388020098209381,-2.045205231755972
0.03663395484909415,-0.8805068815127015,0.0786111643537879,-2.050475592724979
0.03663395484909415,-0.885777436196804,0.08388020098209381,-2.050475592724979
0.031361295841634274,-0.8805068815127015,0.08388020098209381,-2.055745953693986
0.03663395484909415,-0.8805068815127015,0.08388020098209381,-2.055745953693986
0.03663395484909415,-0.8805068815127015,0.08388020098209381,-2.055745953693986
0.031361295841634274,-0.885777436196804,0.08388020098209381,-2.061016314662993
0.03663395484909415,-0.8910479908809066,0.08388020098209381,-2.061016314662993
0.03663395484909415,-0.885777436196804,0.08388020098209381,-2.061016314662993
0.03663395484909415,-0.8805068815127015,0.08388020098209381,-2.061016314662993
0.03663395484909415,-0.875236326828599,0.08388020098209381,-2.061016314662993
0.03663395484909415,-0.8805068815127015,0.08388020098209381,-2.061016314662993
0.03663395484909415,-0.8805068815127015,0.08388020098209381,-2.061016314662993
0.03663395484909415,-0.8805068815127015,0.08388020098209381,-2.066286675632
0.03663395484909415,-0.8805068815127015,0.08388020098209381,-2.066286675632
0.03663395484909415,-0.885777436196804,0.08388020098209381,-2.061016314662993
0.031361295841634274,-0.885777436196804,0.08388020098209381,-2.061016314662993
0.03663395484909415,-0.885777436196804,0.0786111643537879,-2.066286675632
0.03663395484909415,-0.885777436196804,0.08388020098209381,-2.066286675632
0.03663395484909415,-0.8805068815127015,0.08388020098209381,-2.066286675632
0.03663395484909415,-0.8910479908809066,0.08388020098209381,-2.066286675632
0.03663395484909415,-0.9015891002491117,0.08388020098209381,-2.066286675632
0.03663395484909415,-0.9068596549332142,0.0786111643537879,-2.066286675632
0.03663395484909415,-0.9068596549332142,0.08388020098209381,-2.071557036601007
0.03663395484909415,-0.9015891002491117,0.08388020098209381,-2.066286675632
0.03663395484909415,-0.9015891002491117,0.08388020098209381,-2.066286675632
0.031361295841634274,-0.8963185455650091,0.08388020098209381,-2.066286675632
0.03663395484909415,-0.8910479908809066,0.0786111643537879,-2.066286675632
0.03663395484909415,-0.885777436196804,0.08388020098209381,-2.061016314662993
0.03663395484909415,-0.8805068815127015,0.08388020098209381,-2.061016314662993
0.03663395484909415,-0.875236326828599,0.08388020098209381,-2.061016314662993
0.03663395484909415,-0.8699657721444964,0.0786111643537879,-2.055745953693986
0.03663395484909415,-0.8699657721444964,0.08388020098209381,-2.050475592724979
0.03663395484909415,-0.875236326828599,0.08388020098209381,-2.039934870786965
0.03663395484909415,-0.875236326828599,0.08388020098209381,-2.039934870786965
0.031361295841634274,-0.8699657721444964,0.08388020098209381,-2.039934870786965
0.03663395484909415,-0.875236326828599,0.08388020098209381,-2.039934870786965
0.031361295841634274,-0.875236326828599,0.08388020098209381,-2.045205231755972
0.03663395484909415,-0.875236326828599,0.08388020098209381,-2.050475592724979
0.03663395484909415,-0.8805068815127015,0.08388020098209381,-2.050475592724979
0.03663395484909415,-0.8805068815127015,0.08388020098209381,-2.055745953693986
0.03663395484909415,-0.8805068815127015,0.08388020098209381,-2.061016314662993
0.03663395484909415,-0.8805068815127015,0.0786111643537879,-2.061016314662993
0.03663395484909415,-0.875236326828599,0.08388020098209381,-2.055745953693986
0.03663395484909415,-0.8805068815127015,0.08388020098209381,-2.055745953693986
0.03663395484909415,-0.8805068815127015,0.08388020098209381,-2.050475592724979
0.03663395484909415,-0.8805068815127015,0.08388020098209381,-2.045205231755972
0.031361295841634274,-0.885777436196804,0.08388020098209381,-2.050475592724979
0.03663395484909415,-0.885777436196804,0.08388020098209381,-2.055745953693986
0.03663395484909415,-0.8805068815127015,0.08388020098209381,-2.061016314662993
0.03663395484909415,-0.8805068815127015,0.08388020098209381,-2.066286675632
0.03663395484909415,-0.8805068815127015,0.08388020098209381,-2.071557036601007
0.031361295841634274,-0.8805068815127015,0.08388020098209381,-2.071557036601007
0.03663395484909415,-0.8805068815127015,0.08388020098209381,-2.071557036601007
0.03663395484909415,-0.875236326828599,0.08388020098209381,-2.066286675632
0.03663395484909415,-0.875236326828599,0.08388020098209381,-2.071557036601007
0.031361295841634274,-0.8805068815127015,0.08388020098209381,-2.066286675632
0.03663395484909415,-0.885777436196804,0.08388020098209381,-2.071557036601007
0.031361295841634274,-0.885777436196804,0.0786111643537879,-2.066286675632
0.03663395484909415,-0.885777436196804,0.08388020098209381,-2.055745953693986
0.03663395484909415,-0.8805068815127015,0.08388020098209381,-2.050475592724979
0.03663395484909415,-0.8805068815127015,0.08388020098209381,-2.050475592724979
0.03663395484909415,-0.885777436196804,0.08388020098209381,-2.055745953693986
0.031361295841634274,-0.885777436196804,0.0786111643537879,-2.055745953693986
0.03663395484909415,-0.885777436196804,0.08388020098209381,-2.055745953693986
0.03663395484909415,-0.885777436196804,0.0786111643537879,-2.055745953693986
0.03663395484909415,-0.885777436196804,0.0786111643537879,-2.055745953693986
0.03663395484909415,-0.885777436196804,0.08388020098209381,-2.061016314662993
0.03663395484909415,-0.885777436196804,0.08388020098209381,-2.061016314662993
0.03663395484909415,-0.8805068815127015,0.08388020098209381,-2.066286675632
0.03663395484909415,-0.8805068815127015,0.08388020098209381,-2.066286675632
0.03663395484909415,-0.8805068815127015,0.08388020098209381,-2.071557036601007
0.03663395484909415,-0.8910479908809066,0.08388020098209381,-2.071557036601007
0.03663395484909415,-0.8910479908809066,0.0786111643537879,-2.076827397570014
0.03663395484909415,-0.8910479908809066,0.08388020098209381,-2.076827397570014
0.03663395484909415,-0.8963185455650091,0.08388020098209381,-2.071557036601007
0.03663395484909415,-0.8963185455650091,0.08388020098209381,-2.066286675632
0.03663395484909415,-0.8910479908809066,0.08388020098209381,-2.061016314662993
0.03663395484909415,-0.8910479908809066,0.08388020098209381,-2.066286675632
0.03663395484909415,-0.885777436196804,0.0786111643537879,-2.066286675632
0.03663395484909415,-0.885777436196804,0.08388020098209381,-2.071557036601007
0.031361295841634274,-0.8910479908809066,0.0786111643537879,-2.071557036601007
0.03663395484909415,-0.8910479908809066,0.08388020098209381,-2.076827397570014
0.031361295841634274,-0.8910479908809066,0.0786111643537879,-2.082097758539021
0.03663395484909415,-0.885777436196804,0.08388020098209381,-2.082097758539021
0.03663395484909415,-0.8805068815127015,0.0786111643537879,-2.082097758539021
0.03663395484909415,-0.8805068815127015,0.08388020098209381,-2.082097758539021
0.03663395484909415,-0.875236326828599,0.08388020098209381,-2.082097758539021
0.03663395484909415,-0.875236326828599,0.0786111643537879,-2.082097758539021
0.03663395484909415,-0.8805068815127015,0.0786111643537879,-2.076827397570014
0.031361295841634274,-0.885777436196804,0.08388020098209381,-2.082097758539021
0.03663395484909415,-0.885777436196804,0.08388020098209381,-2.082097758539021
0.03663395484909415,-0.885777436196804,0.08388020098209381,-2.082097758539021
0.03663395484909415,-0.885777436196804,0.08388020098209381,-2.071557036601007
0.03663395484909415,-0.885777436196804,0.08388020098209381,-2.071557036601007
0.03663395484909415,-0.8910479908809066,0.08388020098209381,-2.071557036601007
0.03663395484909415,-0.8910479908809066,0.08388020098209381,-2.071557036601007
0.03663395484909415,-0.8910479908809066,0.08388020098209381,-2.071557036601007
0.03663395484909415,-0.885777436196804,0.08388020098209381,-2.071557036601007
0.03663395484909415,-0.8805068815127015,0.08388020098209381,-2.071557036601007
0.03663395484909415,-0.8805068815127015,0.08388020098209381,-2.071557036601007
0.031361295841634274,-0.885777436196804,0.08388020098209381,-2.071557036601007
0.03663395484909415,-0.8805068815127015,0.0786111643537879,-2.071557036601007
0.031361295841634274,-0.885777436196804,0.08388020098209381,-2.076827397570014
0.03663395484909415,-0.8805068815127015,0.08388020098209381,-2.076827397570014
0.031361295841634274,-0.8805068815127015,0.08388020098209381,-2.076827397570014
0.031361295841634274,-0.8805068815127015,0.0786111643537879,-2.082097758539021
0.03663395484909415,-0.885777436196804,0.08388020098209381,-2.082097758539021
0.03663395484909415,-0.885777436196804,0.08388020098209381,-2.082097758539021
0.03663395484909415,-0.885777436196804,0.08388020098209381,-2.071557036601007
0.03663395484909415,-0.8805068815127015,0.08388020098209381,-2.071557036601007
0.03663395484909415,-0.8805068815127015,0.0786111643537879,-2.071557036601007
0.03663395484909415,-0.8805068815127015,0.0786111643537879,-2.071557036601007
0.03663395484909415,-0.875236326828599,0.08388020098209381,-2.071557036601007
0.03663395484909415,-0.8805068815127015,0.08388020098209381,-2.076827397570014
0.03663395484909415,-0.8805068815127015,0.0786111643537879,-2.076827397570014
0.03663395484909415,-0.875236326828599,0.08388020098209381,-2.076827397570014
0.03663395484909415,-0.875236326828599,0.08388020098209381,-2.076827397570014
0.03663395484909415,-0.875236326828599,0.0786111643537879,-2.071557036601007
0.03663395484909415,-0.8805068815127015,0.08388020098209381,-2.061016314662993
0.03663395484909415,-0.885777436196804,0.08388020098209381,-2.061016314662993
0.03663395484909415,-0.8805068815127015,0.0786111643537879,-2.061016314662993
0.03663395484909415,-0.875236326828599,0.08388020098209381,-2.055745953693986
0.03663395484909415,-0.875236326828599,0.08388020098209381,-2.055745953693986
0.031361295841634274,-0.875236326828599,0.08388020098209381,-2.055745953693986
0.03663395484909415,-0.8699657721444964,0.08388020098209381,-2.061016314662993
0.03663395484909415,-0.8699657721444964,0.0786111643537879,-2.066286675632
0.03663395484909415,-0.8646952174603939,0.08388020098209381,-2.066286675632
0.03663395484909415,-0.8646952174603939,0.08388020098209381,-2.066286675632
0.03663395484909415,-0.8646952174603939,0.08388020098209381,-2.066286675632
0.03663395484909415,-0.8646952174603939,0.08388020098209381,-2.071557036601007
0.03663395484909415,-0.8594246627762914,0.0786111643537879,-2.076827397570014
0.031361295841634274,-0.8646952174603939,0.0786111643537879,-2.076827397570014
0.03663395484909415,-0.8646952174603939,0.08388020098209381,-2.076827397570014
0.03663395484909415,-0.8699657721444964,0.0786111643537879,-2.076827397570014
0.03663395484909415,-0.875236326828599,0.0786111643537879,-2.076827397570014
0.03663395484909415,-0.875236326828599,0.08388020098209381,-2.076827397570014
0.031361295841634274,-0.875236326828599,0.08388020098209381,-2.076827397570014
0.03663395484909415,-0.875236326828599,0.08388020098209381,-2.082097758539021
0.031361295841634274,-0.875236326828599,0.0786111643537879,-2.082097758539021
0.031361295841634274,-0.875236326828599,0.08388020098209381,-2.082097758539021
0.03663395484909415,-0.875236326828599,0.08388020098209381,-2.082097758539021
0.03663395484909415,-0.8699657721444964,0.0786111643537879,-2.082097758539021
0.03663395484909415,-0.8699657721444964,0.08388020098209381,-2.087368119508028
0.03663395484909415,-0.8699657721444964,0.08388020098209381,-2.087368119508028
0.03663395484909415,-0.8699657721444964,0.08388020098209381,-2.087368119508028
0.031361295841634274,-0.8699657721444964,0.08388020098209381,-2.082097758539021
0.03663395484909415,-0.8699657721444964,0.08388020098209381,-2.082097758539021
0.03663395484909415,-0.8699657721444964,0.08388020098209381,-2.087368119508028
0.03663395484909415,-0.8699657721444964,0.08388020098209381,-2.087368119508028
0.03663395484909415,-0.8699657721444964,0.08388020098209381,-2.087368119508028
0.03663395484909415,-0.875236326828599,0.08388020098209381,-2.087368119508028
0.03663395484909415,-0.8805068815127015,0.08388020098209381,-2.087368119508028
0.03663395484909415,-0.885777436196804,0.08388020098209381,-2.087368119508028
0.03663395484909415,-0.8910479908809066,0.08388020098209381,-2.087368119508028
0.03663395484909415,-0.8963185455650091,0.08388020098209381,-2.087368119508028
0.03663395484909415,-0.8963185455650091,0.08388020098209381,-2.087368119508028
0.03663395484909415,-0.8963185455650091,0.08388020098209381,-2.087368119508028
0.03663395484909415,-0.8963185455650091,0.08388020098209381,-2.082097758539021
0.031361295841634274,-0.8963185455650091,0.08388020098209381,-2.082097758539021
0.031361295841634274,-0.8963185455650091,0.08388020098209381,-2.087368119508028
0.03663395484909415,-0.9015891002491117,0.08388020098209381,-2.082097758539021
0.031361295841634274,-0.8963185455650091,0.08388020098209381,-2.082097758539021
0.03663395484909415,-0.8910479908809066,0.08388020098209381,-2.082097758539021
0.03663395484909415,-0.885777436196804,0.08388020098209381,-2.076827397570014
0.03663395484909415,-0.8805068815127015,0.08388020098209381,-2.071557036601007
0.03663395484909415,-0.8805068815127015,0.0786111643537879,-2.071557036601007
0.03663395484909415,-0.875236326828599,0.0786111643537879,-2.066286675632
0.03663395484909415,-0.8805068815127015,0.08388020098209381,-2.061016314662993
0.03663395484909415,-0.8805068815127015,0.08388020098209381,-2.061016314662993
0.03663395484909415,-0.885777436196804,0.08388020098209381,-2.055745953693986
0.03663395484909415,-0.8805068815127015,0.0786111643537879,-2.055745953693986
0.03663395484909415,-0.8805068815127015,0.08388020098209381,-2.066286675632
0.031361295841634274,-0.8699657721444964,0.0786111643537879,-2.071557036601007
0.03663395484909415,-0.8646952174603939,0.08388020098209381,-2.071557036601007
0.03663395484909415,-0.8699657721444964,0.08388020098209381,-2.071557036601007
0.031361295841634274,-0.8805068815127015,0.0786111643537879,-2.071557036601007
0.03663395484909415,-0.8910479908809066,0.08388020098209381,-2.071557036601007
0.03663395484909415,-0.885777436196804,0.0786111643537879,-2.071557036601007
0.031361295841634274,-0.885777436196804,0.0786111643537879,-2.076827397570014
0.03663395484909415,-0.885777436196804,0.08388020098209381,-2.076827397570014
0.03663395484909415,-0.885777436196804,0.08388020098209381,-2.076827397570014
0.03663395484909415,-0.8910479908809066,0.08388020098209381,-2.076827397570014
0.03663395484909415,-0.8963185455650091,0.08388020098209381,-2.082097758539021
0.03663395484909415,-0.8910479908809066,0.08388020098209381,-2.082097758539021
0.03663395484909415,-0.8910479908809066,0.08388020098209381,-2.082097758539021
0.03663395484909415,-0.885777436196804,0.08388020098209381,-2.087368119508028
0.03663395484909415,-0.8805068815127015,0.08388020098209381,-2.087368119508028
0.03663395484909415,-0.875236326828599,0.08388020098209381,-2.082097758539021
0.03663395484909415,-0.875236326828599,0.08388020098209381,-2.087368119508028
0.03663395484909415,-0.885777436196804,0.08388020098209381,-2.076827397570014
0.03663395484909415,-0.885777436196804,0.08388020098209381,-2.071557036601007
0.03663395484909415,-0.8910479908809066,0.0786111643537879,-2.071557036601007
0.03663395484909415,-0.885777436196804,0.08388020098209381,-2.066286675632
0.03663395484909415,-0.885777436196804,0.08388020098209381,-2.071557036601007
0.03663395484909415,-0.8805068815127015,0.0786111643537879,-2.071557036601007
0.03663395484909415,-0.885777436196804,0.08388020098209381,-2.076827397570014
0.031361295841634274,-0.8805068815127015,0.08388020098209381,-2.076827397570014
0.03663395484909415,-0.8805068815127015,0.08388020098209381,-2.076827397570014
0.03663395484909415,-0.8805068815127015,0.08388020098209381,-2.076827397570014
0.03663395484909415,-0.8910479908809066,0.08388020098209381,-2.082097758539021
0.03663395484909415,-0.8963185455650091,0.08388020098209381,-2.076827397570014
0.03663395484909415,-0.9015891002491117,0.08388020098209381,-2.082097758539021
0.03663395484909415,-0.9015891002491117,0.0786111643537879,-2.082097758539021
0.03663395484909415,-0.8963185455650091,0.0786111643537879,-2.082097758539021
0.03663395484909415,-0.8963185455650091,0.08388020098209381,-2.082097758539021
0.031361295841634274,-0.9068596549332142,0.08388020098209381,-2.087368119508028
0.03663395484909415,-0.9015891002491117,0.08388020098209381,-2.087368119508028
0.03663395484909415,-0.8910479908809066,0.0786111643537879,-2.087368119508028
0.031361295841634274,-0.885777436196804,0.08388020098209381,-2.087368119508028
0.031361295841634274,-0.8805068815127015,0.08388020098209381,-2.087368119508028
0.031361295841634274,-0.875236326828599,0.08388020098209381,-2.087368119508028
0.03663395484909415,-0.8805068815127015,0.08388020098209381,-2.087368119508028
0.031361295841634274,-0.875236326828599,0.08388020098209381,-2.082097758539021
0.031361295841634274,-0.875236326828599,0.08388020098209381,-2.076827397570014
0.031361295841634274,-0.875236326828599,0.08388020098209381,-2.082097758539021
0.031361295841634274,-0.875236326828599,0.08388020098209381,-2.082097758539021
0.03663395484909415,-0.8699657721444964,0.0786111643537879,-2.082097758539021
0.03663395484909415,-0.875236326828599,0.0786111643537879,-2.076827397570014
0.03663395484909415,-0.875236326828599,0.08388020098209381,-2.071557036601007
0.03663395484909415,-0.875236326828599,0.0786111643537879,-2.071557036601007
0.03663395484909415,-0.885777436196804,0.08388020098209381,-2.071557036601007
0.031361295841634274,-0.8963185455650091,0.0786111643537879,-2.066286675632
0.03663395484909415,-0.8963185455650091,0.0786111643537879,-2.066286675632
0.03663395484909415,-0.8963185455650091,0.08388020098209381,-2.071557036601007
0.03663395484909415,-0.8963185455650091,0.08388020098209381,-2.066286675632
0.03663395484909415,-0.9015891002491117,0.0786111643537879,-2.071557036601007
0.03663395484909415,-0.9015891002491117,0.08388020098209381,-2.071557036601007
0.03663395484909415,-0.8963185455650091,0.08388020098209381,-2.071557036601007
0.031361295841634274,-0.8963185455650091,0.08388020098209381,-2.076827397570014
0.03663395484909415,-0.8963185455650091,0.08388020098209381,-2.076827397570014
0.03663395484909415,-0.9015891002491117,0.08388020098209381,-2.076827397570014
0.03663395484909415,-0.8910479908809066,0.08388020098209381,-2.082097758539021
0.03663395484909415,-0.885777436196804,0.08388020098209381,-2.076827397570014
0.03663395484909415,-0.885777436196804,0.08388020098209381,-2.071557036601007
0.03663395484909415,-0.885777436196804,0.08388020098209381,-2.066286675632
0.03663395484909415,-0.8910479908809066,0.08388020098209381,-2.066286675632
0.031361295841634274,-0.885777436196804,0.08388020098209381,-2.071557036601007
0.03663395484909415,-0.885777436196804,0.08388020098209381,-2.071557036601007
0.03663395484909415,-0.885777436196804,0.08388020098209381,-2.071557036601007
0.03663395484909415,-0.8805068815127015,0.08388020098209381,-2.071557036601007
0.031361295841634274,-0.8805068815127015,0.08388020098209381,-2.071557036601007
0.03663395484909415,-0.8805068815127015,0.0786111643537879,-2.071557036601007
0.031361295841634274,-0.885777436196804,0.08388020098209381,-2.066286675632
0.03663395484909415,-0.8910479908809066,0.08388020098209381,-2.061016314662993
0.03663395484909415,-0.8963185455650091,0.08388020098209381,-2.061016314662993
0.03663395484909415,-0.8963185455650091,0.08388020098209381,-2.055745953693986
0.031361295841634274,-0.8910479908809066,0.08388020098209381,-2.055745953693986
0.03663395484909415,-0.885777436196804,0.08388020098209381,-2.055745953693986
0.03663395484909415,-0.8910479908809066,0.08388020098209381,-2.055745953693986
0.03663395484909415,-0.8910479908809066,0.08388020098209381,-2.055745953693986
0.03663395484909415,-0.8910479908809066,0.08388020098209381,-2.061016314662993
0.03663395484909415,-0.885777436196804,0.08388020098209381,-2.061016314662993
0.03663395484909415,-0.885777436196804,0.08388020098209381,-2.066286675632
0.03663395484909415,-0.885777436196804,0.08388020098209381,-2.066286675632
0.031361295841634274,-0.8805068815127015,0.08388020098209381,-2.071557036601007
0.03663395484909415,-0.8805068815127015,0.08388020098209381,-2.066286675632
0.03663395484909415,-0.8805068815127015,0.0786111643537879,-2.061016314662993
0.03663395484909415,-0.8805068815127015,0.08388020098209381,-2.055745953693986
0.03663395484909415,-0.8805068815127015,0.08388020098209381,-2.050475592724979
0.03663395484909415,-0.8805068815127015,0.08388020098209381,-2.050475592724979
0.03663395484909415,-0.8805068815127015,0.08388020098209381,-2.050475592724979
0.03663395484909415,-0.8805068815127015,0.08388020098209381,-2.055745953693986
0.03663395484909415,-0.8805068815127015,0.0786111643537879,-2.055745953693986
0.03663395484909415,-0.8805068815127015,0.0786111643537879,-2.061016314662993
0.031361295841634274,-0.8805068815127015,0.08388020098209381,-2.055745953693986
0.031361295841634274,-0.8805068815127015,0.08388020098209381,-2.066286675632
0.03663395484909415,-0.8805068815127015,0.08388020098209381,-2.066286675632
0.03663395484909415,-0.885777436196804,0.08388020098209381,-2.071557036601007
0.03663395484909415,-0.885777436196804,0.08388020098209381,-2.071557036601007
0.03663395484909415,-0.8805068815127015,0.08388020098209381,-2.071557036601007
0.03663395484909415,-0.8805068815127015,0.08388020098209381,-2.076827397570014
0.03663395484909415,-0.8805068815127015,0.08388020098209381,-2.071557036601007
0.03663395484909415,-0.8805068815127015,0.08388020098209381,-2.071557036601007
0.03663395484909415,-0.875236326828599,0.08388020098209381,-2.076827397570014
0.03663395484909415,-0.875236326828599,0.08388020098209381,-2.076827397570014
0.031361295841634274,-0.875236326828599,0.08388020098209381,-2.076827397570014
0.03663395484909415,-0.8699657721444964,0.08388020098209381,-2.076827397570014
0.03663395484909415,-0.8699657721444964,0.08388020098209381,-2.076827397570014
0.03663395484909415,-0.8699657721444964,0.08388020098209381,-2.082097758539021
0.03663395484909415,-0.8699657721444964,0.08388020098209381,-2.082097758539021
0.031361295841634274,-0.8646952174603939,0.08388020098209381,-2.082097758539021
0.03663395484909415,-0.8646952174603939,0.08388020098209381,-2.082097758539021
0.031361295841634274,-0.875236326828599,0.0786111643537879,-2.082097758539021
0.03663395484909415,-0.8699657721444964,0.08388020098209381,-2.082097758539021
0.03663395484909415,-0.8646952174603939,0.0786111643537879,-2.082097758539021
0.03663395484909415,-0.8646952174603939,0.08388020098209381,-2.076827397570014
0.03663395484909415,-0.8646952174603939,0.08388020098209381,-2.076827397570014
0.031361295841634274,-0.8646952174603939,0.08388020098209381,-2.082097758539021
0.031361295841634274,-0.8646952174603939,0.08388020098209381,-2.087368119508028
0.03663395484909415,-0.8594246627762914,0.08388020098209381,-2.082097758539021
0.03663395484909415,-0.8594246627762914,0.08388020098209381,-2.087368119508028
0.03663395484909415,-0.8594246627762914,0.08388020098209381,-2.082097758539021
0.03663395484909415,-0.8594246627762914,0.08388020098209381,-2.082097758539021
0.03663395484909415,-0.8594246627762914,0.08388020098209381,-2.082097758539021
0.031361295841634274,-0.8594246627762914,0.0786111643537879,-2.076827397570014
0.03663395484909415,-0.8646952174603939,0.08388020098209381,-2.071557036601007
0.03663395484909415,-0.8594246627762914,0.08388020098209381,-2.071557036601007
0.031361295841634274,-0.8594246627762914,0.08388020098209381,-2.071557036601007
0.03663395484909415,-0.8594246627762914,0.08388020098209381,-2.071557036601007
0.03663395484909415,-0.8594246627762914,0.08388020098209381,-2.066286675632
0.031361295841634274,-0.8646952174603939,0.08388020098209381,-2.066286675632
0.031361295841634274,-0.8646952174603939,0.08388020098209381,-2.066286675632
0.03663395484909415,-0.8646952174603939,0.08388020098209381,-2.061016314662993
0.031361295841634274,-0.8646952174603939,0.08388020098209381,-2.061016314662993
0.03663395484909415,-0.8646952174603939,0.0786111643537879,-2.055745953693986
0.031361295841634274,-0.8646952174603939,0.08388020098209381,-2.055745953693986
0.03663395484909415,-0.8646952174603939,0.08388020098209381,-2.061016314662993
0.03663395484909415,-0.8646952174603939,0.08388020098209381,-2.066286675632
0.031361295841634274,-0.8646952174603939,0.08388020098209381,-2.061016314662993
0.03663395484909415,-0.8646952174603939,0.08388020098209381,-2.061016314662993
0.03663395484909415,-0.8646952174603939,0.08388020098209381,-2.061016314662993
0.03663395484909415,-0.8594246627762914,0.08388020098209381,-2.066286675632
0.031361295841634274,-0.8646952174603939,0.08388020098209381,-2.071557036601007
0.031361295841634274,-0.8646952174603939,0.08388020098209381,-2.071557036601007
0.03663395484909415,-0.8646952174603939,0.08388020098209381,-2.071557036601007
0.03663395484909415,-0.8646952174603939,0.08388020098209381,-2.076827397570014
0.031361295841634274,-0.8646952174603939,0.08388020098209381,-2.071557036601007
0.03663395484909415,-0.8646952174603939,0.08388020098209381,-2.076827397570014
0.031361295841634274,-0.8699657721444964,0.08388020098209381,-2.076827397570014
0.031361295841634274,-0.8699657721444964,0.08388020098209381,-2.066286675632
0.03663395484909415,-0.8699657721444964,0.08388020098209381,-2.055745953693986
0.03663395484909415,-0.8646952174603939,0.08388020098209381,-2.055745953693986
0.03663395484909415,-0.8646952174603939,0.08388020098209381,-2.055745953693986
0.03663395484909415,-0.8699657721444964,0.08388020098209381,-2.055745953693986
0.03663395484909415,-0.8699657721444964,0.08388020098209381,-2.061016314662993
0.031361295841634274,-0.8805068815127015,0.08388020098209381,-2.061016314662993
0.031361295841634274,-0.8805068815127015,0.08388020098209381,-2.061016314662993
0.031361295841634274,-0.875236326828599,0.08388020098209381,-2.061016314662993
0.03663395484909415,-0.875236326828599,0.0786111643537879,-2.066286675632
0.03663395484909415,-0.875236326828599,0.08388020098209381,-2.066286675632
0.03663395484909415,-0.875236326828599,0.08388020098209381,-2.071557036601007
0.03663395484909415,-0.875236326828599,0.08388020098209381,-2.071557036601007
0.03663395484909415,-0.875236326828599,0.0786111643537879,-2.071557036601007
0.03663395484909415,-0.875236326828599,0.08388020098209381,-2.071557036601007
0.03663395484909415,-0.8699657721444964,0.0786111643537879,-2.071557036601007
0.031361295841634274,-0.8699657721444964,0.0786111643537879,-2.076827397570014
0.03663395484909415,-0.8646952174603939,0.08388020098209381,-2.071557036601007
0.03663395484909415,-0.8646952174603939,0.08388020098209381,-2.071557036601007
0.03663395484909415,-0.8646952174603939,0.08388020098209381,-2.076827397570014
0.031361295841634274,-0.8646952174603939,0.08388020098209381,-2.076827397570014
0.03663395484909415,-0.8699657721444964,0.08388020098209381,-2.076827397570014
0.031361295841634274,-0.875236326828599,0.08388020098209381,-2.076827397570014
0.03663395484909415,-0.875236326828599,0.0786111643537879,-2.076827397570014
0.03663395484909415,-0.875236326828599,0.08388020098209381,-2.076827397570014
0.031361295841634274,-0.8699657721444964,0.08388020098209381,-2.076827397570014
0.03663395484909415,-0.8699657721444964,0.08388020098209381,-2.071557036601007
0.031361295841634274,-0.8699657721444964,0.0786111643537879,-2.076827397570014
0.03663395484909415,-0.8646952174603939,0.08388020098209381,-2.076827397570014
0.03663395484909415,-0.8699657721444964,0.08388020098209381,-2.076827397570014
0.031361295841634274,-0.8699657721444964,0.0786111643537879,-2.076827397570014
0.031361295841634274,-0.875236326828599,0.08388020098209381,-2.071557036601007
0.031361295841634274,-0.8699657721444964,0.08388020098209381,-2.071557036601007
0.031361295841634274,-0.8699657721444964,0.0786111643537879,-2.066286675632
0.03663395484909415,-0.8699657721444964,0.08388020098209381,-2.066286675632
0.031361295841634274,-0.8646952174603939,0.08388020098209381,-2.066286675632
0.03663395484909415,-0.8594246627762914,0.08388020098209381,-2.066286675632
0.03663395484909415,-0.8594246627762914,0.08388020098209381,-2.066286675632
0.03663395484909415,-0.8646952174603939,0.08388020098209381,-2.061016314662993
0.03663395484909415,-0.8646952174603939,0.0786111643537879,-2.061016314662993
0.03663395484909415,-0.8699657721444964,0.08388020098209381,-2.066286675632
0.03663395484909415,-0.875236326828599,0.08388020098209381,-2.066286675632
0.03663395484909415,-0.875236326828599,0.08388020098209381,-2.066286675632
0.031361295841634274,-0.875236326828599,0.0786111643537879,-2.066286675632
0.03663395484909415,-0.875236326828599,0.08388020098209381,-2.061016314662993
0.03663395484909415,-0.8699657721444964,0.08388020098209381,-2.055745953693986
0.03663395484909415,-0.8646952174603939,0.08388020098209381,-2.055745953693986
0.03663395484909415,-0.8594246627762914,0.0786111643537879,-2.055745953693986
0.03663395484909415,-0.8594246627762914,0.08388020098209381,-2.055745953693986
0.031361295841634274,-0.8594246627762914,0.08388020098209381,-2.055745953693986
0.03663395484909415,-0.8646952174603939,0.08388020098209381,-2.055745953693986
0.031361295841634274,-0.8646952174603939,0.0786111643537879,-2.055745953693986
0.03663395484909415,-0.8646952174603939,0.08388020098209381,-2.055745953693986
0.03663395484909415,-0.8646952174603939,0.08388020098209381,-2.061016314662993
0.03663395484909415,-0.8646952174603939,0.08388020098209381,-2.061016314662993
0.031361295841634274,-0.8646952174603939,0.08388020098209381,-2.061016314662993
0.03663395484909415,-0.8646952174603939,0.08388020098209381,-2.055745953693986
0.031361295841634274,-0.8646952174603939,0.08388020098209381,-2.050475592724979
0.03663395484909415,-0.8646952174603939,0.0786111643537879,-2.050475592724979
0.031361295841634274,-0.8646952174603939,0.0786111643537879,-2.050475592724979
0.03663395484909415,-0.8646952174603939,0.08388020098209381,-2.050475592724979
0.03663395484909415,-0.8646952174603939,0.0786111643537879,-2.045205231755972
0.03663395484909415,-0.8699657721444964,0.08388020098209381,-2.045205231755972
0.03663395484909415,-0.8699657721444964,0.08388020098209381,-2.039934870786965
0.03663395484909415,-0.8646952174603939,0.08388020098209381,-2.039934870786965
0.03663395484909415,-0.8646952174603939,0.08388020098209381,-2.045205231755972
0.031361295841634274,-0.8646952174603939,0.08388020098209381,-2.039934870786965
0.031361295841634274,-0.8646952174603939,0.08388020098209381,-2.039934870786965
0.03663395484909415,-0.8646952174603939,0.08388020098209381,-2.045205231755972
0.031361295841634274,-0.8646952174603939,0.08388020098209381,-2.039934870786965
0.03663395484909415,-0.8646952174603939,0.0786111643537879,-2.039934870786965
0.031361295841634274,-0.8646952174603939,0.08388020098209381,-2.039934870786965
0.031361295841634274,-0.8594246627762914,0.08388020098209381,-2.039934870786965
0.03663395484909415,-0.8646952174603939,0.08388020098209381,-2.034664509817958
0.03663395484909415,-0.8594246627762914,0.0786111643537879,-2.034664509817958
0.03663395484909415,-0.8594246627762914,0.08388020098209381,-2.034664509817958
0.03663395484909415,-0.8594246627762914,0.08388020098209381,-2.034664509817958
0.03663395484909415,-0.8594246627762914,0.0786111643537879,-2.034664509817958
0.03663395484909415,-0.8594246627762914,0.0786111643537879,-2.034664509817958
0.031361295841634274,-0.8594246627762914,0.08388020098209381,-2.034664509817958
0.03663395484909415,-0.8541541080921888,0.0786111643537879,-2.034664509817958
0.03663395484909415,-0.8541541080921888,0.08388020098209381,-2.034664509817958
0.03663395484909415,-0.8541541080921888,0.08388020098209381,-2.039934870786965
0.03663395484909415,-0.8488835534080863,0.08388020098209381,-2.039934870786965
0.031361295841634274,-0.8541541080921888,0.08388020098209381,-2.034664509817958
0.031361295841634274,-0.8488835534080863,0.08388020098209381,-2.034664509817958
0.03663395484909415,-0.8646952174603939,0.08388020098209381,-2.034664509817958
0.031361295841634274,-0.875236326828599,0.08388020098209381,-2.029394148848951
0.03663395484909415,-0.8805068815127015,0.08388020098209381,-2.029394148848951
0.03663395484909415,-0.8805068815127015,0.08388020098209381,-2.029394148848951
0.031361295841634274,-0.8805068815127015,0.08388020098209381,-2.029394148848951
0.03663395484909415,-0.8805068815127015,0.08388020098209381,-2.024123787879944
0.03663395484909415,-0.8805068815127015,0.08388020098209381,-2.024123787879944
0.03663395484909415,-0.875236326828599,0.08388020098209381,-2.024123787879944
0.03663395484909415,-0.875236326828599,0.08388020098209381,-2.018853426910937
0.03663395484909415,-0.8699657721444964,0.08388020098209381,-2.018853426910937
0.03663395484909415,-0.8699657721444964,0.08388020098209381,-2.024123787879944
0.03663395484909415,-0.8594246627762914,0.0786111643537879,-2.018853426910937
0.03663395484909415,-0.8594246627762914,0.08388020098209381,-2.029394148848951
0.03663395484909415,-0.8594246627762914,0.08388020098209381,-2.024123787879944
0.03663395484909415,-0.8646952174603939,0.08388020098209381,-2.018853426910937
0.031361295841634274,-0.8646952174603939,0.08388020098209381,-2.018853426910937
0.03663395484909415,-0.8594246627762914,0.08388020098209381,-2.018853426910937
0.03663395484909415,-0.8594246627762914,0.08388020098209381,-2.018853426910937
0.03663395484909415,-0.8594246627762914,0.08388020098209381,-2.018853426910937
0.031361295841634274,-0.8594246627762914,0.08388020098209381,-2.018853426910937
0.031361295841634274,-0.8594246627762914,0.08388020098209381,-2.018853426910937
0.03663395484909415,-0.8594246627762914,0.08388020098209381,-2.018853426910937
0.03663395484909415,-0.8594246627762914,0.0786111643537879,-2.018853426910937
0.03663395484909415,-0.8699657721444964,0.08388020098209381,-2.024123787879944
0.03663395484909415,-0.8805068815127015,0.08388020098209381,-2.018853426910937
0.031361295841634274,-0.885777436196804,0.08388020098209381,-2.01358306594193
0.03663395484909415,-0.8805068815127015,0.08388020098209381,-2.01358306594193
0.031361295841634274,-0.875236326828599,0.08388020098209381,-2.003042344003916
0.03663395484909415,-0.8699657721444964,0.08388020098209381,-2.003042344003916
0.03663395484909415,-0.8699657721444964,0.08388020098209381,-2.003042344003916
0.031361295841634274,-0.8594246627762914,0.08388020098209381,-2.018853426910937
0.03663395484909415,-0.8594246627762914,0.08388020098209381,-2.045205231755972
0.03663395484909415,-0.8594246627762914,0.08388020098209381,-2.055745953693986
0.03663395484909415,-0.8594246627762914,0.08388020098209381,-2.066286675632
0.03663395484909415,-0.8594246627762914,0.08388020098209381,-2.076827397570014
0.03663395484909415,-0.8541541080921888,0.08388020098209381,-2.082097758539021
0.031361295841634274,-0.8594246627762914,0.08388020098209381,-2.076827397570014
0.031361295841634274,-0.8646952174603939,0.08388020098209381,-2.076827397570014
0.03663395484909415,-0.8594246627762914,0.08388020098209381,-2.082097758539021
0.03663395484909415,-0.8594246627762914,0.08388020098209381,-2.082097758539021
0.03663395484909415,-0.8646952174603939,0.08388020098209381,-2.082097758539021
0.03663395484909415,-0.8699657721444964,0.08388020098209381,-2.082097758539021
0.03663395484909415,-0.8699657721444964,0.08388020098209381,-2.082097758539021
0.031361295841634274,-0.8646952174603939,0.0786111643537879,-2.087368119508028
0.03663395484909415,-0.8646952174603939,0.08388020098209381,-2.082097758539021
0.03663395484909415,-0.8646952174603939,0.08388020098209381,-2.087368119508028
0.031361295841634274,-0.8594246627762914,0.08388020098209381,-2.087368119508028
0.03663395484909415,-0.8646952174603939,0.08388020098209381,-2.087368119508028
0.03663395484909415,-0.8699657721444964,0.08388020098209381,-2.087368119508028
0.03663395484909415,-0.875236326828599,0.08388020098209381,-2.087368119508028
0.031361295841634274,-0.8805068815127015,0.08388020098209381,-2.076827397570014
0.031361295841634274,-0.875236326828599,0.08388020098209381,-2.071557036601007
0.031361295841634274,-0.875236326828599,0.08388020098209381,-2.071557036601007
0.03663395484909415,-0.8699657721444964,0.0786111643537879,-2.066286675632
0.031361295841634274,-0.875236326828599,0.08388020098209381,-2.071557036601007
0.03663395484909415,-0.875236326828599,0.08388020098209381,-2.071557036601007
0.03663395484909415,-0.8699657721444964,0.08388020098209381,-2.071557036601007
0.03663395484909415,-0.8699657721444964,0.0786111643537879,-2.076827397570014
0.031361295841634274,-0.8699657721444964,0.08388020098209381,-2.076827397570014
0.03663395484909415,-0.875236326828599,0.08388020098209381,-2.082097758539021
0.03663395484909415,-0.885777436196804,0.0786111643537879,-2.082097758539021
0.03663395484909415,-0.8910479908809066,0.0786111643537879,-2.082097758539021
0.031361295841634274,-0.8963185455650091,0.08388020098209381,-2.082097758539021
0.031361295841634274,-0.8963185455650091,0.08388020098209381,-2.082097758539021
0.03663395484909415,-0.8963185455650091,0.08388020098209381,-2.082097758539021
0.03663395484909415,-0.8963185455650091,0.08388020098209381,-2.076827397570014
0.031361295841634274,-0.8963185455650091,0.08388020098209381,-2.082097758539021
0.031361295841634274,-0.8963185455650091,0.08388020098209381,-2.076827397570014
0.031361295841634274,-0.8963185455650091,0.08388020098209381,-2.082097758539021
0.03663395484909415,-0.8910479908809066,0.08388020098209381,-2.087368119508028
0.03663395484909415,-0.885777436196804,0.08388020098209381,-2.087368119508028
0.03663395484909415,-0.8805068815127015,0.0786111643537879,-2.082097758539021
0.03663395484909415,-0.885777436196804,0.08388020098209381,-2.087368119508028
0.03663395484909415,-0.8805068815127015,0.08388020098209381,-2.082097758539021
0.03663395484909415,-0.875236326828599,0.08388020098209381,-2.087368119508028
0.03663395484909415,-0.8805068815127015,0.08388020098209381,-2.082097758539021
0.03663395484909415,-0.885777436196804,0.08388020098209381,-2.082097758539021
0.03663395484909415,-0.885777436196804,0.0786111643537879,-2.082097758539021
0.031361295841634274,-0.885777436196804,0.0786111643537879,-2.082097758539021
0.031361295841634274,-0.885777436196804,0.08388020098209381,-2.076827397570014
0.03663395484909415,-0.8805068815127015,0.08388020098209381,-2.071557036601007
0.03663395484909415,-0.8805068815127015,0.08388020098209381,-2.071557036601007
0.03663395484909415,-0.885777436196804,0.08388020098209381,-2.071557036601007
0.03663395484909415,-0.8805068815127015,0.0786111643537879,-2.076827397570014
0.03663395484909415,-0.8805068815127015,0.08388020098209381,-2.076827397570014
0.031361295841634274,-0.8805068815127015,0.08388020098209381,-2.082097758539021
0.03663395484909415,-0.8805068815127015,0.08388020098209381,-2.082097758539021
0.03663395484909415,-0.8805068815127015,0.08388020098209381,-2.076827397570014
0.031361295841634274,-0.875236326828599,0.08388020098209381,-2.082097758539021
0.03663395484909415,-0.875236326828599,0.08388020098209381,-2.082097758539021
0.031361295841634274,-0.8699657721444964,0.08388020098209381,-2.076827397570014
0.03663395484909415,-0.8699657721444964,0.08388020098209381,-2.076827397570014
0.03663395484909415,-0.8699657721444964,0.0786111643537879,-2.076827397570014
0.03663395484909415,-0.8699657721444964,0.0786111643537879,-2.076827397570014
0.03663395484909415,-0.8699657721444964,0.08388020098209381,-2.076827397570014
0.03663395484909415,-0.875236326828599,0.0786111643537879,-2.076827397570014
0.03663395484909415,-0.875236326828599,0.0786111643537879,-2.071557036601007
0.03663395484909415,-0.875236326828599,0.08388020098209381,-2.071557036601007
0.03663395484909415,-0.875236326828599,0.08388020098209381,-2.076827397570014
0.03663395484909415,-0.8805068815127015,0.08388020098209381,-2.076827397570014
0.031361295841634274,-0.8805068815127015,0.08388020098209381,-2.076827397570014
0.031361295841634274,-0.8805068815127015,0.08388020098209381,-2.076827397570014
0.031361295841634274,-0.875236326828599,0.0786111643537879,-2.076827397570014
0.03663395484909415,-0.875236326828599,0.08388020098209381,-2.082097758539021
0.03663395484909415,-0.8805068815127015,0.08388020098209381,-2.082097758539021
0.03663395484909415,-0.885777436196804,0.0786111643537879,-2.087368119508028
0.03663395484909415,-0.8805068815127015,0.08388020098209381,-2.082097758539021
0.03663395484909415,-0.8805068815127015,0.0786111643537879,-2.082097758539021
0.031361295841634274,-0.8805068815127015,0.0786111643537879,-2.087368119508028
0.031361295841634274,-0.8805068815127015,0.08388020098209381,-2.082097758539021
0.03663395484909415,-0.8805068815127015,0.08388020098209381,-2.082097758539021
0.031361295841634274,-0.885777436196804,0.08388020098209381,-2.082097758539021
0.031361295841634274,-0.8805068815127015,0.08388020098209381,-2.082097758539021
0.031361295841634274,-0.8805068815127015,0.08388020098209381,-2.076827397570014
0.03663395484909415,-0.885777436196804,0.08388020098209381,-2.071557036601007
0.031361295841634274,-0.885777436196804,0.0786111643537879,-2.071557036601007
0.03663395484909415,-0.885777436196804,0.08388020098209381,-2.076827397570014
0.03663395484909415,-0.885777436196804,0.08388020098209381,-2.076827397570014
0.031361295841634274,-0.885777436196804,0.08388020098209381,-2.076827397570014
0.031361295841634274,-0.8910479908809066,0.08388020098209381,-2.076827397570014
0.031361295841634274,-0.8910479908809066,0.08388020098209381,-2.076827397570014
0.031361295841634274,-0.885777436196804,0.0786111643537879,-2.076827397570014
0.03663395484909415,-0.885777436196804,0.08388020098209381,-2.076827397570014
0.03663395484909415,-0.885777436196804,0.08388020098209381,-2.103179202415049
0.03663395484909415,-0.885777436196804,0.08388020098209381,-2.129531007260084
0.03663395484909415,-0.885777436196804,0.08388020098209381,-2.129531007260084
0.03663395484909415,-0.8910479908809066,0.08388020098209381,-2.129531007260084
0.03663395484909415,-0.8910479908809066,0.08388020098209381,-2.129531007260084
0.03663395484909415,-0.8910479908809066,0.08388020098209381,-2.129531007260084
0.03663395484909415,-0.8805068815127015,0.0786111643537879,-2.129531007260084
0.031361295841634274,-0.8805068815127015,0.08388020098209381,-2.134801368229091
0.031361295841634274,-0.8805068815127015,0.08388020098209381,-2.129531007260084
0.03663395484909415,-0.8805068815127015,0.08388020098209381,-2.129531007260084
0.03663395484909415,-0.875236326828599,0.0786111643537879,-2.129531007260084
0.031361295841634274,-0.875236326828599,0.08388020098209381,-2.129531007260084
0.03663395484909415,-0.875236326828599,0.08388020098209381,-2.129531007260084
0.03663395484909415,-0.8805068815127015,0.0786111643537879,-2.140071729198098
0.031361295841634274,-0.875236326828599,0.08388020098209381,-2.134801368229091
0.03663395484909415,-0.875236326828599,0.08388020098209381,-2.129531007260084
0.03663395484909415,-0.875236326828599,0.08388020098209381,-2.129531007260084
0.031361295841634274,-0.875236326828599,0.08388020098209381,-2.129531007260084
0.03663395484909415,-0.875236326828599,0.0786111643537879,-2.129531007260084
0.03663395484909415,-0.8699657721444964,0.08388020098209381,-2.129531007260084
0.03663395484909415,-0.8699657721444964,0.08388020098209381,-2.124260646291077
0.03663395484909415,-0.8699657721444964,0.08388020098209381,-2.11899028532207
0.031361295841634274,-0.8699657721444964,0.08388020098209381,-2.124260646291077
0.03663395484909415,-0.8646952174603939,0.08388020098209381,-2.124260646291077
0.031361295841634274,-0.875236326828599,0.08388020098209381,-2.124260646291077
0.031361295841634274,-0.875236326828599,0.08914923761039972,-2.124260646291077
0.03663395484909415,-0.875236326828599,0.0786111643537879,-2.124260646291077
0.03663395484909415,-0.875236326828599,0.08388020098209381,-2.124260646291077
0.03663395484909415,-0.875236326828599,0.0786111643537879,-2.124260646291077
0.031361295841634274,-0.8805068815127015,0.0786111643537879,-2.129531007260084
0.031361295841634274,-0.875236326828599,0.08388020098209381,-2.129531007260084
0.031361295841634274,-0.8699657721444964,0.08388020098209381,-2.129531007260084
0.031361295841634274,-0.875236326828599,0.08388020098209381,-2.129531007260084
0.031361295841634274,-0.875236326828599,0.08388020098209381,-2.124260646291077
0.03663395484909415,-0.8699657721444964,0.08388020098209381,-2.124260646291077
0.03663395484909415,-0.875236326828599,0.0786111643537879,-2.124260646291077
0.03663395484909415,-0.8805068815127015,0.08388020098209381,-2.11899028532207
0.031361295841634274,-0.8805068815127015,0.08388020098209381,-2.113719924353063
0.03663395484909415,-0.885777436196804,0.08388020098209381,-2.113719924353063
0.031361295841634274,-0.885777436196804,0.08388020098209381,-2.11899028532207
0.03663395484909415,-0.885777436196804,0.08388020098209381,-2.113719924353063
0.03663395484909415,-0.885777436196804,0.08388020098209381,-2.113719924353063
0.03663395484909415,-0.885777436196804,0.08388020098209381,-2.113719924353063
0.03663395484909415,-0.875236326828599,0.08388020098209381,-2.11899028532207
0.031361295841634274,-0.8805068815127015,0.08388020098209381,-2.11899028532207
0.03663395484909415,-0.8805068815127015,0.08388020098209381,-2.11899028532207
0.031361295841634274,-0.8805068815127015,0.08388020098209381,-2.113719924353063
0.03663395484909415,-0.875236326828599,0.08388020098209381,-2.113719924353063
0.03663395484909415,-0.875236326828599,0.0786111643537879,-2.113719924353063
0.03663395484909415,-0.875236326828599,0.08388020098209381,-2.113719924353063
0.031361295841634274,-0.8805068815127015,0.08388020098209381,-2.113719924353063
0.031361295841634274,-0.885777436196804,0.08388020098209381,-2.11899028532207
0.03663395484909415,-0.885777436196804,0.08388020098209381,-2.11899028532207
0.031361295841634274,-0.8805068815127015,0.08388020098209381,-2.11899028532207
0.03663395484909415,-0.8805068815127015,0.08388020098209381,-2.11899028532207
0.031361295841634274,-0.8805068815127015,0.08388020098209381,-2.11899028532207
0.031361295841634274,-0.8805068815127015,0.08388020098209381,-2.11899028532207
0.03663395484909415,-0.875236326828599,0.08388020098209381,-2.113719924353063
0.031361295841634274,-0.8805068815127015,0.08388020098209381,-2.103179202415049
0.03663395484909415,-0.8805068815127015,0.08388020098209381,-2.103179202415049
0.03663395484909415,-0.8805068815127015,0.08388020098209381,-2.092638480477035
0.03663395484909415,-0.875236326828599,0.08388020098209381,-2.097908841446042
0.03663395484909415,-0.8805068815127015,0.08388020098209381,-2.097908841446042
0.03663395484909415,-0.8910479908809066,0.08388020098209381,-2.097908841446042
0.03663395484909415,-0.8805068815127015,0.0786111643537879,-2.103179202415049
0.03663395484909415,-0.885777436196804,0.08388020098209381,-2.108449563384056
0.03663395484909415,-0.8805068815127015,0.08388020098209381,-2.103179202415049
0.031361295841634274,-0.875236326828599,0.08388020098209381,-2.097908841446042
0.03663395484909415,-0.8805068815127015,0.08388020098209381,-2.097908841446042
0.03663395484909415,-0.875236326828599,0.08388020098209381,-2.103179202415049
0.03663395484909415,-0.875236326828599,0.0786111643537879,-2.103179202415049
0.03663395484909415,-0.875236326828599,0.0786111643537879,-2.103179202415049
0.03663395484909415,-0.875236326828599,0.08388020098209381,-2.108449563384056
0.03663395484909415,-0.875236326828599,0.08388020098209381,-2.108449563384056
0.03663395484909415,-0.875236326828599,0.08388020098209381,-2.108449563384056
0.03663395484909415,-0.875236326828599,0.08388020098209381,-2.113719924353063
0.03663395484909415,-0.875236326828599,0.08388020098209381,-2.113719924353063
0.03663395484909415,-0.875236326828599,0.0786111643537879,-2.113719924353063
0.03663395484909415,-0.8805068815127015,0.0786111643537879,-2.108449563384056
0.03663395484909415,-0.885777436196804,0.08388020098209381,-2.103179202415049
0.031361295841634274,-0.8910479908809066,0.08388020098209381,-2.103179202415049
0.031361295841634274,-0.8910479908809066,0.08388020098209381,-2.103179202415049
0.031361295841634274,-0.885777436196804,0.08388020098209381,-2.103179202415049
0.03663395484909415,-0.885777436196804,0.08388020098209381,-2.103179202415049
0.03663395484909415,-0.885777436196804,0.08388020098209381,-2.103179202415049
0.03663395484909415,-0.885777436196804,0.08388020098209381,-2.108449563384056
0.031361295841634274,-0.885777436196804,0.08388020098209381,-2.108449563384056
0.031361295841634274,-0.885777436196804,0.0786111643537879,-2.113719924353063
0.03663395484909415,-0.885777436196804,0.08388020098209381,-2.108449563384056
0.031361295841634274,-0.8805068815127015,0.08388020098209381,-2.108449563384056
0.03663395484909415,-0.8805068815127015,0.08388020098209381,-2.103179202415049
0.031361295841634274,-0.875236326828599,0.08388020098209381,-2.103179202415049
0.031361295841634274,-0.875236326828599,0.0786111643537879,-2.103179202415049
0.031361295841634274,-0.875236326828599,0.08388020098209381,-2.103179202415049
0.03663395484909415,-0.875236326828599,0.0786111643537879,-2.103179202415049
0.03663395484909415,-0.875236326828599,0.08388020098209381,-2.097908841446042
0.03663395484909415,-0.8699657721444964,0.08388020098209381,-2.103179202415049
0.031361295841634274,-0.8699657721444964,0.08388020098209381,-2.103179202415049
0.03663395484909415,-0.875236326828599,0.08388020098209381,-2.092638480477035
0.03663395484909415,-0.8699657721444964,0.0786111643537879,-2.097908841446042
0.03663395484909415,-0.8699657721444964,0.08388020098209381,-2.092638480477035
0.031361295841634274,-0.8699657721444964,0.08388020098209381,-2.092638480477035
0.03663395484909415,-0.8699657721444964,0.08388020098209381,-2.092638480477035
0.03663395484909415,-0.8699657721444964,0.08388020098209381,-2.092638480477035
0.03663395484909415,-0.8699657721444964,0.08388020098209381,-2.092638480477035
0.031361295841634274,-0.8646952174603939,0.0786111643537879,-2.092638480477035
0.031361295841634274,-0.8699657721444964,0.0786111643537879,-2.087368119508028
0.03663395484909415,-0.8646952174603939,0.08388020098209381,-2.087368119508028
0.03663395484909415,-0.8646952174603939,0.0786111643537879,-2.087368119508028
0.031361295841634274,-0.8646952174603939,0.08388020098209381,-2.092638480477035
0.03663395484909415,-0.8646952174603939,0.08388020098209381,-2.087368119508028
0.03663395484909415,-0.8699657721444964,0.0786111643537879,-2.087368119508028
0.03663395484909415,-0.8646952174603939,0.08388020098209381,-2.087368119508028
0.031361295841634274,-0.8646952174603939,0.08388020098209381,-2.082097758539021
0.03663395484909415,-0.8646952174603939,0.08388020098209381,-2.082097758539021
0.03663395484909415,-0.8699657721444964,0.0786111643537879,-2.082097758539021
0.031361295841634274,-0.8699657721444964,0.08388020098209381,-2.082097758539021
0.03663395484909415,-0.8699657721444964,0.0786111643537879,-2.076827397570014
0.03663395484909415,-0.8699657721444964,0.08388020098209381,-2.076827397570014
0.03663395484909415,-0.8699657721444964,0.08388020098209381,-2.076827397570014
0.03663395484909415,-0.8699657721444964,0.08388020098209381,-2.076827397570014
0.031361295841634274,-0.8699657721444964,0.08388020098209381,-2.076827397570014
0.03663395484909415,-0.8699657721444964,0.08388020098209381,-2.076827397570014
0.03663395484909415,-0.8699657721444964,0.08388020098209381,-2.076827397570014
0.031361295841634274,-0.8646952174603939,0.08388020098209381,-2.076827397570014
0.03663395484909415,-0.8646952174603939,0.08388020098209381,-2.071557036601007
0.03663395484909415,-0.8699657721444964,0.08388020098209381,-2.071557036601007
0.03663395484909415,-0.8646952174603939,0.0786111643537879,-2.071557036601007
0.03663395484909415,-0.8646952174603939,0.08388020098209381,-2.071557036601007
0.03663395484909415,-0.8699657721444964,0.08388020098209381,-2.076827397570014
0.03663395484909415,-0.8699657721444964,0.08388020098209381,-2.082097758539021
0.03663395484909415,-0.875236326828599,0.08388020098209381,-2.082097758539021
0.03663395484909415,-0.8699657721444964,0.08388020098209381,-2.087368119508028
0.03663395484909415,-0.8699657721444964,0.08388020098209381,-2.082097758539021
0.031361295841634274,-0.8699657721444964,0.08388020098209381,-2.087368119508028
0.03663395484909415,-0.8699657721444964,0.0786111643537879,-2.087368119508028
0.031361295841634274,-0.8646952174603939,0.08388020098209381,-2.087368119508028
0.031361295841634274,-0.8646952174603939,0.0786111643537879,-2.087368119508028
0.03663395484909415,-0.8646952174603939,0.08388020098209381,-2.092638480477035
0.03663395484909415,-0.8646952174603939,0.08388020098209381,-2.087368119508028
0.031361295841634274,-0.8646952174603939,0.08388020098209381,-2.082097758539021
0.03663395484909415,-0.8646952174603939,0.08388020098209381,-2.082097758539021
0.03663395484909415,-0.8646952174603939,0.0786111643537879,-2.087368119508028
0.03663395484909415,-0.8646952174603939,0.0786111643537879,-2.087368119508028
0.03663395484909415,-0.8646952174603939,0.08388020098209381,-2.092638480477035
0.031361295841634274,-0.8646952174603939,0.08388020098209381,-2.087368119508028
0.03663395484909415,-0.8646952174603939,0.08388020098209381,-2.092638480477035
0.031361295841634274,-0.8699657721444964,0.0786111643537879,-2.087368119508028
0.031361295841634274,-0.8699657721444964,0.0786111643537879,-2.087368119508028
0.03663395484909415,-0.8646952174603939,0.0786111643537879,-2.087368119508028
0.031361295841634274,-0.8646952174603939,0.08388020098209381,-2.087368119508028
0.03663395484909415,-0.8646952174603939,0.08388020098209381,-2.087368119508028
0.03663395484909415,-0.8594246627762914,0.08388020098209381,-2.082097758539021
0.031361295841634274,-0.8594246627762914,0.08388020098209381,-2.087368119508028
0.03663395484909415,-0.8646952174603939,0.0786111643537879,-2.087368119508028
0.031361295841634274,-0.8594246627762914,0.08388020098209381,-2.087368119508028
0.031361295841634274,-0.8646952174603939,0.0786111643537879,-2.087368119508028
0.03663395484909415,-0.8594246627762914,0.08388020098209381,-2.082097758539021
0.031361295841634274,-0.8646952174603939,0.08388020098209381,-2.082097758539021
0.031361295841634274,-0.8594246627762914,0.08388020098209381,-2.082097758539021
0.031361295841634274,-0.8646952174603939,0.0786111643537879,-2.076827397570014
0.03663395484909415,-0.8646952174603939,0.0786111643537879,-2.076827397570014
0.031361295841634274,-0.8699657721444964,0.08388020098209381,-2.071557036601007
0.031361295841634274,-0.875236326828599,0.0786111643537879,-2.071557036601007
0.031361295841634274,-0.8805068815127015,0.08388020098209381,-2.066286675632
0.03663395484909415,-0.8805068815127015,0.08388020098209381,-2.061016314662993
0.03663395484909415,-0.875236326828599,0.0786111643537879,-2.055745953693986
0.03663395484909415,-0.875236326828599,0.08388020098209381,-2.055745953693986
0.031361295841634274,-0.875236326828599,0.08388020098209381,-2.050475592724979
0.031361295841634274,-0.875236326828599,0.0786111643537879,-2.050475592724979
0.03663395484909415,-0.8805068815127015,0.08388020098209381,-2.050475592724979
0.031361295841634274,-0.8805068815127015,0.08388020098209381,-2.050475592724979
0.031361295841634274,-0.8805068815127015,0.08388020098209381,-2.055745953693986
0.03663395484909415,-0.875236326828599,0.08388020098209381,-2.055745953693986
0.031361295841634274,-0.875236326828599,0.08388020098209381,-2.061016314662993
0.03663395484909415,-0.875236326828599,0.08388020098209381,-2.061016314662993
0.031361295841634274,-0.8699657721444964,0.08388020098209381,-2.061016314662993
0.03663395484909415,-0.8699657721444964,0.08388020098209381,-2.061016314662993
0.03663395484909415,-0.8646952174603939,0.08388020098209381,-2.066286675632
0.03663395484909415,-0.8646952174603939,0.0786111643537879,-2.066286675632
0.03663395484909415,-0.8646952174603939,0.08388020098209381,-2.061016314662993
0.03663395484909415,-0.8594246627762914,0.08388020098209381,-2.066286675632
0.031361295841634274,-0.8594246627762914,0.0786111643537879,-2.066286675632
0.03663395484909415,-0.8594246627762914,0.0786111643537879,-2.066286675632
0.03663395484909415,-0.8541541080921888,0.08388020098209381,-2.055745953693986
0.031361295841634274,-0.8541541080921888,0.08388020098209381,-2.050475592724979
0.03663395484909415,-0.8541541080921888,0.08388020098209381,-2.045205231755972
0.031361295841634274,-0.8594246627762914,0.0786111643537879,-2.045205231755972
0.03663395484909415,-0.8541541080921888,0.08388020098209381,-2.045205231755972
0.03663395484909415,-0.8541541080921888,0.08388020098209381,-2.045205231755972
0.03663395484909415,-0.8541541080921888,0.08388020098209381,-2.050475592724979
0.03663395484909415,-0.8541541080921888,0.08388020098209381,-2.055745953693986
0.031361295841634274,-0.8541541080921888,0.0786111643537879,-2.055745953693986
0.031361295841634274,-0.8541541080921888,0.08388020098209381,-2.055745953693986
0.031361295841634274,-0.8541541080921888,0.0786111643537879,-2.055745953693986
0.03663395484909415,-0.8541541080921888,0.08388020098209381,-2.061016314662993
0.03663395484909415,-0.8594246627762914,0.0786111643537879,-2.061016314662993
0.03663395484909415,-0.8541541080921888,0.0786111643537879,-2.061016314662993
0.03663395484909415,-0.8594246627762914,0.08388020098209381,-2.061016314662993
0.03663395484909415,-0.8646952174603939,0.08388020098209381,-2.066286675632
0.03663395484909415,-0.8646952174603939,0.0786111643537879,-2.055745953693986
0.031361295841634274,-0.8646952174603939,0.08388020098209381,-2.050475592724979
0.03663395484909415,-0.8646952174603939,0.08388020098209381,-2.045205231755972
0.03663395484909415,-0.8646952174603939,0.08388020098209381,-2.045205231755972
0.03663395484909415,-0.8646952174603939,0.0786111643537879,-2.055745953693986
0.03663395484909415,-0.8646952174603939,0.08388020098209381,-2.055745953693986
0.03663395484909415,-0.8646952174603939,0.08388020098209381,-2.055745953693986
0.031361295841634274,-0.8594246627762914,0.0786111643537879,-2.061016314662993
0.03663395484909415,-0.8594246627762914,0.08388020098209381,-2.061016314662993
0.03663395484909415,-0.8594246627762914,0.0786111643537879,-2.061016314662993
0.03663395484909415,-0.8594246627762914,0.08388020098209381,-2.061016314662993
0.03663395484909415,-0.8646952174603939,0.08388020098209381,-2.061016314662993
0.03663395484909415,-0.8646952174603939,0.0786111643537879,-2.061016314662993
0.03663395484909415,-0.8646952174603939,0.08388020098209381,-2.066286675632
0.03663395484909415,-0.8594246627762914,0.08388020098209381,-2.071557036601007
0.03663395484909415,-0.8594246627762914,0.08388020098209381,-2.082097758539021
0.031361295841634274,-0.8541541080921888,0.08388020098209381,-2.076827397570014
0.03663395484909415,-0.8594246627762914,0.08388020098209381,-2.082097758539021
0.03663395484909415,-0.8594246627762914,0.08388020098209381,-2.076827397570014
0.03663395484909415,-0.8594246627762914,0.0786111643537879,-2.076827397570014
0.03663395484909415,-0.8594246627762914,0.08388020098209381,-2.076827397570014
0.03663395484909415,-0.8594246627762914,0.0786111643537879,-2.076827397570014
0.031361295841634274,-0.8594246627762914,0.0786111643537879,-2.076827397570014
0.03663395484909415,-0.8594246627762914,0.08388020098209381,-2.066286675632
0.031361295841634274,-0.8594246627762914,0.0786111643537879,-2.061016314662993
0.031361295841634274,-0.8646952174603939,0.08388020098209381,-2.061016314662993
0.03663395484909415,-0.8646952174603939,0.08388020098209381,-2.061016314662993
0.031361295841634274,-0.8646952174603939,0.0786111643537879,-2.066286675632
0.031361295841634274,-0.8646952174603939,0.0786111643537879,-2.066286675632
0.031361295841634274,-0.8646952174603939,0.08388020098209381,-2.055745953693986
0.03663395484909415,-0.8699657721444964,0.0786111643537879,-2.050475592724979
0.031361295841634274,-0.8699657721444964,0.08388020098209381,-2.045205231755972
0.03663395484909415,-0.875236326828599,0.0786111643537879,-2.045205231755972
0.03663395484909415,-0.8699657721444964,0.08388020098209381,-2.045205231755972
0.03663395484909415,-0.8699657721444964,0.08388020098209381,-2.050475592724979
0.03663395484909415,-0.8699657721444964,0.0786111643537879,-2.055745953693986
0.03663395484909415,-0.8699657721444964,0.08388020098209381,-2.055745953693986
0.031361295841634274,-0.875236326828599,0.0786111643537879,-2.061016314662993
0.03663395484909415,-0.8699657721444964,0.08388020098209381,-2.066286675632
0.03663395484909415,-0.8699657721444964,0.0786111643537879,-2.066286675632
0.031361295841634274,-0.8699657721444964,0.08388020098209381,-2.066286675632
0.031361295841634274,-0.8646952174603939,0.0786111643537879,-2.066286675632
0.03663395484909415,-0.8699657721444964,0.08388020098209381,-2.066286675632
0.03663395484909415,-0.8646952174603939,0.08388020098209381,-2.071557036601007
0.03663395484909415,-0.8594246627762914,0.0786111643537879,-2.071557036601007
0.03663395484909415,-0.8646952174603939,0.08388020098209381,-2.071557036601007
0.031361295841634274,-0.8646952174603939,0.08388020098209381,-2.076827397570014
0.03663395484909415,-0.8646952174603939,0.0786111643537879,-2.076827397570014
0.031361295841634274,-0.8594246627762914,0.0786111643537879,-2.082097758539021
0.03663395484909415,-0.8594246627762914,0.08388020098209381,-2.076827397570014
0.031361295841634274,-0.8594246627762914,0.08388020098209381,-2.082097758539021
0.03663395484909415,-0.8594246627762914,0.08388020098209381,-2.082097758539021
0.03663395484909415,-0.8594246627762914,0.08388020098209381,-2.082097758539021
0.03663395484909415,-0.8646952174603939,0.08388020098209381,-2.076827397570014
0.03663395484909415,-0.8594246627762914,0.08388020098209381,-2.082097758539021
0.03663395484909415,-0.8646952174603939,0.08388020098209381,-2.082097758539021
0.03663395484909415,-0.8646952174603939,0.0786111643537879,-2.076827397570014
0.031361295841634274,-0.8646952174603939,0.0786111643537879,-2.082097758539021
0.03663395484909415,-0.8594246627762914,0.08388020098209381,-2.082097758539021
0.03663395484909415,-0.8646952174603939,0.08388020098209381,-2.082097758539021
0.031361295841634274,-0.8594246627762914,0.0786111643537879,-2.082097758539021
0.03663395484909415,-0.8646952174603939,0.0786111643537879,-2.082097758539021
0.03663395484909415,-0.8646952174603939,0.08388020098209381,-2.082097758539021
0.031361295841634274,-0.8594246627762914,0.08388020098209381,-2.082097758539021
0.031361295841634274,-0.8646952174603939,0.0786111643537879,-2.082097758539021
0.03663395484909415,-0.8594246627762914,0.0786111643537879,-2.082097758539021
0.031361295841634274,-0.8594246627762914,0.08388020098209381,-2.082097758539021
0.031361295841634274,-0.8646952174603939,0.08388020098209381,-2.082097758539021
0.03663395484909415,-0.8646952174603939,0.0786111643537879,-2.082097758539021
0.03663395484909415,-0.8646952174603939,0.0786111643537879,-2.082097758539021
0.03663395484909415,-0.8594246627762914,0.08388020098209381,-2.082097758539021
0.03663395484909415,-0.8646952174603939,0.08388020098209381,-2.082097758539021
0.03663395484909415,-0.8646952174603939,0.0786111643537879,-2.082097758539021
0.03663395484909415,-0.8646952174603939,0.08388020098209381,-2.082097758539021
0.03663395484909415,-0.8646952174603939,0.08388020098209381,-2.082097758539021
0.03663395484909415,-0.8646952174603939,0.08388020098209381,-2.082097758539021
0.03663395484909415,-0.8646952174603939,0.0786111643537879,-2.082097758539021
0.03663395484909415,-0.8594246627762914,0.08388020098209381,-2.076827397570014
0.03663395484909415,-0.8594246627762914,0.0786111643537879,-2.076827397570014
0.03663395484909415,-0.8541541080921888,0.0786111643537879,-2.076827397570014
0.031361295841634274,-0.8541541080921888,0.08388020098209381,-2.076827397570014
0.03663395484909415,-0.8646952174603939,0.08388020098209381,-2.076827397570014
0.03663395484909415,-0.8646952174603939,0.08388020098209381,-2.076827397570014
0.031361295841634274,-0.8646952174603939,0.0786111643537879,-2.076827397570014
0.03663395484909415,-0.8646952174603939,0.0786111643537879,-2.076827397570014
0.03663395484909415,-0.8646952174603939,0.08388020098209381,-2.076827397570014
0.03663395484909415,-0.8646952174603939,0.08388020098209381,-2.076827397570014
0.031361295841634274,-0.8699657721444964,0.0786111643537879,-2.071557036601007
0.031361295841634274,-0.8699657721444964,0.08388020098209381,-2.076827397570014
0.03663395484909415,-0.875236326828599,0.08388020098209381,-2.076827397570014
0.03663395484909415,-0.8699657721444964,0.0786111643537879,-2.076827397570014
0.03663395484909415,-0.8699657721444964,0.0786111643537879,-2.076827397570014
0.03663395484909415,-0.8699657721444964,0.08388020098209381,-2.071557036601007
0.031361295841634274,-0.8699657721444964,0.08388020098209381,-2.066286675632
0.03663395484909415,-0.8699657721444964,0.08388020098209381,-2.071557036601007
0.03663395484909415,-0.8699657721444964,0.08388020098209381,-2.071557036601007
0.03663395484909415,-0.8699657721444964,0.08388020098209381,-2.071557036601007
0.031361295841634274,-0.8699657721444964,0.08388020098209381,-2.071557036601007
0.031361295841634274,-0.8699657721444964,0.08388020098209381,-2.076827397570014
0.03663395484909415,-0.875236326828599,0.08388020098209381,-2.076827397570014
0.03663395484909415,-0.8805068815127015,0.08388020098209381,-2.066286675632
0.03663395484909415,-0.8805068815127015,0.08388020098209381,-2.061016314662993
0.03663395484909415,-0.8805068815127015,0.08388020098209381,-2.061016314662993
0.03663395484909415,-0.8805068815127015,0.08388020098209381,-2.055745953693986
0.03663395484909415,-0.875236326828599,0.08388020098209381,-2.055745953693986
0.03663395484909415,-0.875236326828599,0.08388020098209381,-2.061016314662993
0.031361295841634274,-0.8699657721444964,0.08388020098209381,-2.061016314662993
0.03663395484909415,-0.875236326828599,0.08388020098209381,-2.061016314662993
0.03663395484909415,-0.8699657721444964,0.08388020098209381,-2.061016314662993
0.03663395484909415,-0.8699657721444964,0.0786111643537879,-2.066286675632
0.03663395484909415,-0.8699657721444964,0.0786111643537879,-2.061016314662993
0.03663395484909415,-0.8646952174603939,0.0786111643537879,-2.061016314662993
0.03663395484909415,-0.8646952174603939,0.0786111643537879,-2.066286675632
0.03663395484909415,-0.8646952174603939,0.0786111643537879,-2.066286675632
0.03663395484909415,-0.8699657721444964,0.08388020098209381,-2.066286675632
0.03663395484909415,-0.8646952174603939,0.08388020098209381,-2.066286675632
0.03663395484909415,-0.8646952174603939,0.08388020098209381,-2.066286675632
0.031361295841634274,-0.8699657721444964,0.0786111643537879,-2.071557036601007
0.031361295841634274,-0.8646952174603939,0.0786111643537879,-2.076827397570014
0.03663395484909415,-0.8594246627762914,0.08388020098209381,-2.076827397570014
0.03663395484909415,-0.8541541080921888,0.0786111643537879,-2.071557036601007
0.03663395484909415,-0.8541541080921888,0.08388020098209381,-2.076827397570014
0.03663395484909415,-0.8594246627762914,0.0786111643537879,-2.076827397570014
0.03663395484909415,-0.8646952174603939,0.08388020098209381,-2.076827397570014
0.03663395484909415,-0.8646952174603939,0.08388020098209381,-2.076827397570014
0.03663395484909415,-0.8699657721444964,0.0786111643537879,-2.076827397570014
0.03663395484909415,-0.8699657721444964,0.08388020098209381,-2.076827397570014
0.031361295841634274,-0.8699657721444964,0.08388020098209381,-2.082097758539021
0.03663395484909415,-0.8699657721444964,0.08388020098209381,-2.082097758539021
0.03663395484909415,-0.8699657721444964,0.08388020098209381,-2.082097758539021
0.03663395484909415,-0.8646952174603939,0.08388020098209381,-2.082097758539021
0.031361295841634274,-0.8699657721444964,0.08388020098209381,-2.082097758539021
0.03663395484909415,-0.8699657721444964,0.08388020098209381,-2.066286675632
0.03663395484909415,-0.8699657721444964,0.0786111643537879,-2.061016314662993
0.03663395484909415,-0.8699657721444964,0.0786111643537879,-2.055745953693986
0.031361295841634274,-0.8646952174603939,0.0786111643537879,-2.055745953693986
0.03663395484909415,-0.8646952174603939,0.0786111643537879,-2.055745953693986
0.031361295841634274,-0.8646952174603939,0.0786111643537879,-2.061016314662993
0.03663395484909415,-0.8646952174603939,0.08388020098209381,-2.061016314662993
0.03663395484909415,-0.8594246627762914,0.08388020098209381,-2.066286675632
0.031361295841634274,-0.8594246627762914,0.08388020098209381,-2.071557036601007
0.031361295841634274,-0.8646952174603939,0.08388020098209381,-2.071557036601007
0.03663395484909415,-0.8646952174603939,0.08388020098209381,-2.061016314662993
0.031361295841634274,-0.8646952174603939,0.08388020098209381,-2.055745953693986
0.031361295841634274,-0.8594246627762914,0.08388020098209381,-2.050475592724979
0.031361295841634274,-0.8594246627762914,0.08388020098209381,-2.050475592724979
0.03663395484909415,-0.8646952174603939,0.0786111643537879,-2.045205231755972
0.03663395484909415,-0.8646952174603939,0.08388020098209381,-2.045205231755972
0.031361295841634274,-0.8646952174603939,0.08388020098209381,-2.050475592724979
0.031361295841634274,-0.8646952174603939,0.08388020098209381,-2.050475592724979
0.031361295841634274,-0.8699657721444964,0.08388020098209381,-2.061016314662993
0.03663395484909415,-0.8646952174603939,0.08388020098209381,-2.061016314662993
0.03663395484909415,-0.8646952174603939,0.0786111643537879,-2.066286675632
0.03663395484909415,-0.8594246627762914,0.08388020098209381,-2.066286675632
0.03663395484909415,-0.8594246627762914,0.0786111643537879,-2.066286675632
0.031361295841634274,-0.8594246627762914,0.08388020098209381,-2.066286675632
0.03663395484909415,-0.8594246627762914,0.08388020098209381,-2.066286675632
0.03663395484909415,-0.8594246627762914,0.08388020098209381,-2.071557036601007
0.03663395484909415,-0.8594246627762914,0.08388020098209381,-2.076827397570014
0.03663395484909415,-0.8594246627762914,0.08388020098209381,-2.076827397570014
0.03663395484909415,-0.8594246627762914,0.08388020098209381,-2.066286675632
0.03663395484909415,-0.8594246627762914,0.08388020098209381,-2.066286675632
0.03663395484909415,-0.8594246627762914,0.0786111643537879,-2.061016314662993
0.03663395484909415,-0.8594246627762914,0.08388020098209381,-2.061016314662993
0.03663395484909415,-0.8594246627762914,0.08388020098209381,-2.061016314662993
0.031361295841634274,-0.8594246627762914,0.08388020098209381,-2.061016314662993
0.03663395484909415,-0.8594246627762914,0.08388020098209381,-2.061016314662993
0.03663395484909415,-0.8594246627762914,0.0786111643537879,-2.066286675632
0.03663395484909415,-0.8594246627762914,0.08388020098209381,-2.071557036601007
0.03663395484909415,-0.8646952174603939,0.08388020098209381,-2.071557036601007
0.031361295841634274,-0.8594246627762914,0.0786111643537879,-2.076827397570014
0.03663395484909415,-0.8594246627762914,0.0786111643537879,-2.082097758539021
0.03663395484909415,-0.8594246627762914,0.0786111643537879,-2.082097758539021
0.031361295841634274,-0.8594246627762914,0.08388020098209381,-2.087368119508028
0.03663395484909415,-0.8594246627762914,0.0786111643537879,-2.087368119508028
0.03663395484909415,-0.8594246627762914,0.08388020098209381,-2.087368119508028
0.03663395484909415,-0.8594246627762914,0.08388020098209381,-2.087368119508028
0.031361295841634274,-0.8594246627762914,0.08388020098209381,-2.087368119508028
0.03663395484909415,-0.8594246627762914,0.0786111643537879,-2.092638480477035
0.03663395484909415,-0.8594246627762914,0.08388020098209381,-2.092638480477035
0.03663395484909415,-0.8541541080921888,0.08388020098209381,-2.097908841446042
0.03663395484909415,-0.8541541080921888,0.08388020098209381,-2.097908841446042
0.03663395484909415,-0.8541541080921888,0.08388020098209381,-2.097908841446042
0.03663395484909415,-0.8541541080921888,0.08388020098209381,-2.097908841446042
0.03663395484909415,-0.8594246627762914,0.08388020098209381,-2.103179202415049
0.031361295841634274,-0.8594246627762914,0.08388020098209381,-2.097908841446042
0.031361295841634274,-0.8594246627762914,0.08388020098209381,-2.097908841446042
0.03663395484909415,-0.8594246627762914,0.0786111643537879,-2.097908841446042
0.03663395484909415,-0.8594246627762914,0.0786111643537879,-2.103179202415049
0.03663395484909415,-0.8646952174603939,0.08388020098209381,-2.103179202415049
0.03663395484909415,-0.8541541080921888,0.0786111643537879,-2.108449563384056
0.03663395484909415,-0.8594246627762914,0.08388020098209381,-2.108449563384056
0.031361295841634274,-0.8541541080921888,0.08388020098209381,-2.108449563384056
0.03663395484909415,-0.8594246627762914,0.08388020098209381,-2.108449563384056
0.03663395484909415,-0.8594246627762914,0.08388020098209381,-2.113719924353063
0.03663395484909415,-0.8541541080921888,0.0786111643537879,-2.113719924353063
0.03663395484909415,-0.8541541080921888,0.0786111643537879,-2.108449563384056
0.03663395484909415,-0.8541541080921888,0.08388020098209381,-2.113719924353063
0.03663395484909415,-0.8541541080921888,0.0786111643537879,-2.108449563384056
0.031361295841634274,-0.8541541080921888,0.0786111643537879,-2.108449563384056
0.03663395484909415,-0.8541541080921888,0.0786111643537879,-2.108449563384056
0.03663395484909415,-0.8541541080921888,0.0786111643537879,-2.108449563384056
0.03663395484909415,-0.8594246627762914,0.0786111643537879,-2.103179202415049
0.03663395484909415,-0.8594246627762914,0.0786111643537879,-2.103179202415049
0.03663395484909415,-0.8594246627762914,0.0786111643537879,-2.103179202415049
0.03663395484909415,-0.8594246627762914,0.0786111643537879,-2.103179202415049
0.03663395484909415,-0.8594246627762914,0.08388020098209381,-2.103179202415049
0.031361295841634274,-0.8646952174603939,0.08388020098209381,-2.103179202415049
0.03663395484909415,-0.8699657721444964,0.08388020098209381,-2.097908841446042
0.03663395484909415,-0.8699657721444964,0.0786111643537879,-2.092638480477035
0.03663395484909415,-0.875236326828599,0.0786111643537879,-2.097908841446042
0.03663395484909415,-0.875236326828599,0.0786111643537879,-2.092638480477035
0.03663395484909415,-0.8805068815127015,0.08388020098209381,-2.092638480477035
0.03663395484909415,-0.875236326828599,0.0786111643537879,-2.097908841446042
0.031361295841634274,-0.875236326828599,0.0786111643537879,-2.097908841446042
0.03663395484909415,-0.875236326828599,0.0786111643537879,-2.097908841446042
0.031361295841634274,-0.875236326828599,0.08388020098209381,-2.103179202415049
0.03663395484909415,-0.875236326828599,0.0786111643537879,-2.108449563384056
0.03663395484909415,-0.875236326828599,0.08388020098209381,-2.108449563384056
0.03663395484909415,-0.8699657721444964,0.08388020098209381,-2.108449563384056
0.03663395484909415,-0.8699657721444964,0.0786111643537879,-2.103179202415049
0.03663395484909415,-0.875236326828599,0.08388020098209381,-2.108449563384056
0.03663395484909415,-0.8805068815127015,0.0786111643537879,-2.108449563384056
0.03663395484909415,-0.8805068815127015,0.08388020098209381,-2.103179202415049
0.03663395484909415,-0.8805068815127015,0.08388020098209381,-2.103179202415049
0.031361295841634274,-0.8805068815127015,0.08388020098209381,-2.108449563384056
0.03663395484909415,-0.8805068815127015,0.08388020098209381,-2.108449563384056
0.03663395484909415,-0.885777436196804,0.0786111643537879,-2.108449563384056
0.03663395484909415,-0.885777436196804,0.08388020098209381,-2.108449563384056
0.03663395484909415,-0.8805068815127015,0.0786111643537879,-2.108449563384056
0.03663395484909415,-0.885777436196804,0.08388020098209381,-2.103179202415049
0.03663395484909415,-0.8910479908809066,0.08388020098209381,-2.103179202415049
0.03663395484909415,-0.885777436196804,0.0786111643537879,-2.103179202415049
0.03663395484909415,-0.8805068815127015,0.08388020098209381,-2.103179202415049
0.031361295841634274,-0.885777436196804,0.0786111643537879,-2.103179202415049
0.03663395484909415,-0.8910479908809066,0.08388020098209381,-2.103179202415049
0.03663395484909415,-0.8910479908809066,0.08388020098209381,-2.103179202415049
0.03663395484909415,-0.885777436196804,0.0786111643537879,-2.103179202415049
0.03663395484909415,-0.885777436196804,0.08388020098209381,-2.108449563384056
0.03663395484909415,-0.885777436196804,0.08388020098209381,-2.108449563384056
0.031361295841634274,-0.885777436196804,0.08388020098209381,-2.103179202415049
0.03663395484909415,-0.885777436196804,0.0786111643537879,-2.103179202415049
0.03663395484909415,-0.8805068815127015,0.0786111643537879,-2.103179202415049
0.03663395484909415,-0.8805068815127015,0.0786111643537879,-2.097908841446042
0.03663395484909415,-0.8805068815127015,0.0786111643537879,-2.097908841446042
0.03663395484909415,-0.8805068815127015,0.08388020098209381,-2.097908841446042
0.03663395484909415,-0.8805068815127015,0.0786111643537879,-2.087368119508028
0.03663395484909415,-0.8805068815127015,0.08388020098209381,-2.087368119508028
0.03663395484909415,-0.875236326828599,0.08388020098209381,-2.087368119508028
0.03663395484909415,-0.875236326828599,0.0786111643537879,-2.087368119508028
0.03663395484909415,-0.875236326828599,0.08388020098209381,-2.087368119508028
0.031361295841634274,-0.875236326828599,0.0786111643537879,-2.082097758539021
0.03663395484909415,-0.875236326828599,0.08388020098209381,-2.087368119508028
0.031361295841634274,-0.875236326828599,0.0786111643537879,-2.087368119508028
0.03663395484909415,-0.875236326828599,0.08388020098209381,-2.087368119508028
0.031361295841634274,-0.875236326828599,0.08388020098209381,-2.087368119508028
0.03663395484909415,-0.875236326828599,0.0786111643537879,-2.092638480477035
0.031361295841634274,-0.875236326828599,0.0786111643537879,-2.092638480477035
0.03663395484909415,-0.875236326828599,0.0786111643537879,-2.097908841446042
0.031361295841634274,-0.875236326828599,0.0786111643537879,-2.092638480477035
0.03663395484909415,-0.875236326828599,0.08388020098209381,-2.087368119508028
0.03663395484909415,-0.8699657721444964,0.08388020098209381,-2.082097758539021
0.03663395484909415,-0.8805068815127015,0.0786111643537879,-2.082097758539021
0.031361295841634274,-0.8805068815127015,0.0786111643537879,-2.082097758539021
0.03663395484909415,-0.885777436196804,0.08388020098209381,-2.082097758539021
0.03663395484909415,-0.885777436196804,0.0786111643537879,-2.082097758539021
0.03663395484909415,-0.885777436196804,0.0786111643537879,-2.082097758539021
0.03663395484909415,-0.8805068815127015,0.08388020098209381,-2.082097758539021
0.03663395484909415,-0.8805068815127015,0.08388020098209381,-2.087368119508028
0.031361295841634274,-0.8805068815127015,0.08388020098209381,-2.082097758539021
0.03663395484909415,-0.885777436196804,0.0786111643537879,-2.076827397570014
0.03663395484909415,-0.8805068815127015,0.08388020098209381,-2.076827397570014
0.03663395484909415,-0.8805068815127015,0.0786111643537879,-2.071557036601007
0.03663395484909415,-0.8805068815127015,0.0786111643537879,-2.076827397570014
0.03663395484909415,-0.8805068815127015,0.0786111643537879,-2.071557036601007
0.03663395484909415,-0.8805068815127015,0.08388020098209381,-2.071557036601007
0.031361295841634274,-0.8805068815127015,0.08388020098209381,-2.071557036601007
0.03663395484909415,-0.8805068815127015,0.0786111643537879,-2.076827397570014
0.03663395484909415,-0.8805068815127015,0.0786111643537879,-2.076827397570014
0.03663395484909415,-0.8805068815127015,0.08388020098209381,-2.076827397570014
0.03663395484909415,-0.885777436196804,0.0786111643537879,-2.076827397570014
0.031361295841634274,-0.8910479908809066,0.0786111643537879,-2.082097758539021
0.031361295841634274,-0.885777436196804,0.08388020098209381,-2.082097758539021
0.03663395484909415,-0.8805068815127015,0.08388020098209381,-2.082097758539021
0.03663395484909415,-0.8805068815127015,0.0786111643537879,-2.087368119508028
0.031361295841634274,-0.875236326828599,0.08388020098209381,-2.087368119508028
0.03663395484909415,-0.875236326828599,0.08388020098209381,-2.087368119508028
0.031361295841634274,-0.875236326828599,0.08388020098209381,-2.082097758539021
0.03663395484909415,-0.875236326828599,0.0786111643537879,-2.076827397570014
0.03663395484909415,-0.875236326828599,0.0786111643537879,-2.076827397570014
0.031361295841634274,-0.875236326828599,0.08388020098209381,-2.076827397570014
0.031361295841634274,-0.885777436196804,0.0786111643537879,-2.076827397570014
0.03663395484909415,-0.8805068815127015,0.08388020098209381,-2.082097758539021
0.03663395484909415,-0.8805068815127015,0.08388020098209381,-2.082097758539021
0.03663395484909415,-0.875236326828599,0.0786111643537879,-2.082097758539021
0.031361295841634274,-0.875236326828599,0.0786111643537879,-2.082097758539021
0.03663395484909415,-0.8805068815127015,0.08388020098209381,-2.082097758539021
0.03663395484909415,-0.8805068815127015,0.08388020098209381,-2.082097758539021
0.031361295841634274,-0.875236326828599,0.08388020098209381,-2.076827397570014
0.03663395484909415,-0.875236326828599,0.08388020098209381,-2.076827397570014
0.03663395484909415,-0.875236326828599,0.08388020098209381,-2.071557036601007
0.03663395484909415,-0.8699657721444964,0.08388020098209381,-2.071557036601007
0.03663395484909415,-0.8699657721444964,0.08388020098209381,-2.076827397570014
0.03663395484909415,-0.8699657721444964,0.0786111643537879,-2.076827397570014
0.031361295841634274,-0.8646952174603939,0.08388020098209381,-2.076827397570014
0.03663395484909415,-0.8646952174603939,0.08388020098209381,-2.076827397570014
0.031361295841634274,-0.8594246627762914,0.0786111643537879,-2.082097758539021
0.03663395484909415,-0.8646952174603939,0.08388020098209381,-2.082097758539021
0.03663395484909415,-0.8699657721444964,0.0786111643537879,-2.082097758539021
0.03663395484909415,-0.8699657721444964,0.08388020098209381,-2.082097758539021
0.03663395484909415,-0.875236326828599,0.0786111643537879,-2.087368119508028
0.03663395484909415,-0.875236326828599,0.08388020098209381,-2.087368119508028
0.031361295841634274,-0.875236326828599,0.0786111643537879,-2.087368119508028
0.031361295841634274,-0.875236326828599,0.0786111643537879,-2.082097758539021
0.03663395484909415,-0.875236326828599,0.08388020098209381,-2.071557036601007
0.03663395484909415,-0.875236326828599,0.08388020098209381,-2.066286675632
0.03663395484909415,-0.875236326828599,0.08388020098209381,-2.061016314662993
0.03663395484909415,-0.8805068815127015,0.0786111643537879,-2.061016314662993
0.031361295841634274,-0.8910479908809066,0.08388020098209381,-2.061016314662993
0.031361295841634274,-0.8963185455650091,0.08388020098209381,-2.061016314662993
0.03663395484909415,-0.8963185455650091,0.08388020098209381,-2.061016314662993
0.03663395484909415,-0.9015891002491117,0.08388020098209381,-2.061016314662993
0.031361295841634274,-0.8963185455650091,0.08388020098209381,-2.061016314662993
0.03663395484909415,-0.8963185455650091,0.0786111643537879,-2.066286675632
0.03663395484909415,-0.8963185455650091,0.08388020098209381,-2.071557036601007
0.03663395484909415,-0.8910479908809066,0.08388020098209381,-2.076827397570014
0.03663395484909415,-0.8910479908809066,0.0786111643537879,-2.076827397570014
0.031361295841634274,-0.8910479908809066,0.0786111643537879,-2.071557036601007
0.031361295841634274,-0.8910479908809066,0.0786111643537879,-2.061016314662993
0.031361295841634274,-0.8910479908809066,0.0786111643537879,-2.061016314662993
0.03663395484909415,-0.8910479908809066,0.08388020098209381,-2.061016314662993
0.03663395484909415,-0.8910479908809066,0.0786111643537879,-2.061016314662993
0.03663395484909415,-0.8910479908809066,0.08388020098209381,-2.066286675632
0.031361295841634274,-0.8910479908809066,0.08388020098209381,-2.066286675632
0.031361295841634274,-0.8910479908809066,0.08388020098209381,-2.071557036601007
0.031361295841634274,-0.8963185455650091,0.0786111643537879,-2.076827397570014
0.031361295841634274,-0.8963185455650091,0.0786111643537879,-2.076827397570014
0.03663395484909415,-0.8963185455650091,0.0786111643537879,-2.082097758539021
0.03663395484909415,-0.8963185455650091,0.08388020098209381,-2.076827397570014
0.03663395484909415,-0.8910479908809066,0.0786111643537879,-2.071557036601007
0.03663395484909415,-0.8910479908809066,0.0786111643537879,-2.071557036601007
0.03663395484909415,-0.8910479908809066,0.08388020098209381,-2.066286675632
0.03663395484909415,-0.885777436196804,0.08388020098209381,-2.066286675632
0.031361295841634274,-0.885777436196804,0.08388020098209381,-2.066286675632
0.03663395484909415,-0.885777436196804,0.0786111643537879,-2.071557036601007
0.03663395484909415,-0.885777436196804,0.08388020098209381,-2.082097758539021
0.03663395484909415,-0.8963185455650091,0.0786111643537879,-2.082097758539021
0.031361295841634274,-0.8963185455650091,0.0786111643537879,-2.082097758539021
0.03663395484909415,-0.8910479908809066,0.0786111643537879,-2.082097758539021
0.031361295841634274,-0.885777436196804,0.08388020098209381,-2.082097758539021
0.03663395484909415,-0.8805068815127015,0.08388020098209381,-2.082097758539021
0.03663395484909415,-0.875236326828599,0.08388020098209381,-2.082097758539021
0.031361295841634274,-0.875236326828599,0.08388020098209381,-2.082097758539021
0.031361295841634274,-0.885777436196804,0.08388020098209381,-2.082097758539021
0.03663395484909415,-0.8910479908809066,0.08388020098209381,-2.082097758539021
0.03663395484909415,-0.885777436196804,0.0786111643537879,-2.087368119508028
0.031361295841634274,-0.885777436196804,0.0786111643537879,-2.087368119508028
0.031361295841634274,-0.8910479908809066,0.0786111643537879,-2.087368119508028
0.03663395484909415,-0.8910479908809066,0.08388020098209381,-2.087368119508028
0.03663395484909415,-0.885777436196804,0.0786111643537879,-2.087368119508028
0.03663395484909415,-0.885777436196804,0.08388020098209381,-2.087368119508028
0.03663395484909415,-0.8805068815127015,0.0786111643537879,-2.087368119508028
0.03663395484909415,-0.875236326828599,0.0786111643537879,-2.087368119508028
0.03663395484909415,-0.8805068815127015,0.0786111643537879,-2.087368119508028
0.031361295841634274,-0.875236326828599,0.08388020098209381,-2.092638480477035
0.03663395484909415,-0.875236326828599,0.08388020098209381,-2.092638480477035
0.031361295841634274,-0.8699657721444964,0.08388020098209381,-2.092638480477035
0.031361295841634274,-0.875236326828599,0.0786111643537879,-2.092638480477035
0.03663395484909415,-0.8805068815127015,0.0786111643537879,-2.092638480477035
0.031361295841634274,-0.885777436196804,0.08388020098209381,-2.092638480477035
0.03663395484909415,-0.8910479908809066,0.08388020098209381,-2.087368119508028
0.031361295841634274,-0.8910479908809066,0.08388020098209381,-2.092638480477035
0.03663395484909415,-0.8910479908809066,0.0786111643537879,-2.087368119508028
0.031361295841634274,-0.8910479908809066,0.08388020098209381,-2.087368119508028
0.031361295841634274,-0.8910479908809066,0.0786111643537879,-2.087368119508028
0.031361295841634274,-0.8963185455650091,0.0786111643537879,-2.087368119508028
0.03663395484909415,-0.8963185455650091,0.08388020098209381,-2.087368119508028
0.031361295841634274,-0.8910479908809066,0.08388020098209381,-2.087368119508028
0.03663395484909415,-0.8910479908809066,0.0786111643537879,-2.082097758539021
0.03663395484909415,-0.8910479908809066,0.0786111643537879,-2.082097758539021
0.03663395484909415,-0.8910479908809066,0.08388020098209381,-2.087368119508028
0.031361295841634274,-0.8910479908809066,0.08388020098209381,-2.087368119508028
0.03663395484909415,-0.8910479908809066,0.0786111643537879,-2.082097758539021
0.03663395484909415,-0.8910479908809066,0.0786111643537879,-2.082097758539021
0.03663395484909415,-0.8910479908809066,0.0786111643537879,-2.076827397570014
0.03663395484909415,-0.8963185455650091,0.08388020098209381,-2.076827397570014
0.031361295841634274,-0.8910479908809066,0.08388020098209381,-2.076827397570014
0.03663395484909415,-0.8963185455650091,0.0786111643537879,-2.076827397570014
0.03663395484909415,-0.9015891002491117,0.08388020098209381,-2.082097758539021
0.03663395484909415,-0.9015891002491117,0.08388020098209381,-2.087368119508028
0.03663395484909415,-0.9015891002491117,0.0786111643537879,-2.087368119508028
0.03663395484909415,-0.9015891002491117,0.08388020098209381,-2.092638480477035
0.03663395484909415,-0.8963185455650091,0.0786111643537879,-2.092638480477035
0.03663395484909415,-0.8910479908809066,0.08388020098209381,-2.092638480477035
0.03663395484909415,-0.8910479908809066,0.0786111643537879,-2.092638480477035
0.03663395484909415,-0.885777436196804,0.08388020098209381,-2.092638480477035
0.03663395484909415,-0.8910479908809066,0.0786111643537879,-2.092638480477035
0.03663395484909415,-0.8963185455650091,0.0786111643537879,-2.092638480477035
0.03663395484909415,-0.9015891002491117,0.0786111643537879,-2.087368119508028
0.031361295841634274,-0.9068596549332142,0.08388020098209381,-2.076827397570014
0.03663395484909415,-0.9015891002491117,0.0786111643537879,-2.076827397570014
0.03663395484909415,-0.9068596549332142,0.0786111643537879,-2.076827397570014
0.03663395484909415,-0.9068596549332142,0.0786111643537879,-2.076827397570014
0.031361295841634274,-0.9121302096173167,0.0786111643537879,-2.076827397570014
0.03663395484909415,-0.9174007643014193,0.08388020098209381,-2.076827397570014
0.031361295841634274,-0.9174007643014193,0.08388020098209381,-2.076827397570014
0.03663395484909415,-0.9174007643014193,0.0786111643537879,-2.076827397570014
0.03663395484909415,-0.9121302096173167,0.0786111643537879,-2.076827397570014
0.03663395484909415,-0.9068596549332142,0.08388020098209381,-2.076827397570014
0.03663395484909415,-0.9015891002491117,0.0786111643537879,-2.082097758539021
0.03663395484909415,-0.9015891002491117,0.08388020098209381,-2.076827397570014
0.031361295841634274,-0.8963185455650091,0.0786111643537879,-2.082097758539021
0.03663395484909415,-0.8963185455650091,0.0786111643537879,-2.082097758539021
0.03663395484909415,-0.9015891002491117,0.0786111643537879,-2.082097758539021
0.03663395484909415,-0.9068596549332142,0.0786111643537879,-2.087368119508028
0.03663395484909415,-0.9121302096173167,0.0786111643537879,-2.092638480477035
0.03663395484909415,-0.9121302096173167,0.0786111643537879,-2.097908841446042
0.031361295841634274,-0.9068596549332142,0.0786111643537879,-2.097908841446042
0.031361295841634274,-0.9068596549332142,0.08388020098209381,-2.097908841446042
0.03663395484909415,-0.9121302096173167,0.0786111643537879,-2.097908841446042
0.03663395484909415,-0.9121302096173167,0.0786111643537879,-2.097908841446042
0.03663395484909415,-0.9121302096173167,0.0786111643537879,-2.097908841446042
0.03663395484909415,-0.9068596549332142,0.08388020098209381,-2.097908841446042
0.03663395484909415,-0.9068596549332142,0.0786111643537879,-2.097908841446042
0.031361295841634274,-0.9015891002491117,0.08388020098209381,-2.097908841446042
0.031361295841634274,-0.8963185455650091,0.0786111643537879,-2.097908841446042
0.03663395484909415,-0.8910479908809066,0.0786111643537879,-2.097908841446042
0.031361295841634274,-0.885777436196804,0.0786111643537879,-2.103179202415049
0.03663395484909415,-0.885777436196804,0.08388020098209381,-2.103179202415049
0.031361295841634274,-0.885777436196804,0.08388020098209381,-2.103179202415049
0.03663395484909415,-0.8910479908809066,0.0786111643537879,-2.103179202415049
0.03663395484909415,-0.8963185455650091,0.0786111643537879,-2.097908841446042
0.03663395484909415,-0.9015891002491117,0.08388020098209381,-2.097908841446042
0.031361295841634274,-0.9015891002491117,0.08388020098209381,-2.097908841446042
0.03663395484909415,-0.9068596549332142,0.08388020098209381,-2.092638480477035
0.031361295841634274,-0.9121302096173167,0.08388020098209381,-2.097908841446042
0.03663395484909415,-0.9068596549332142,0.0786111643537879,-2.092638480477035
0.03663395484909415,-0.9015891002491117,0.08388020098209381,-2.092638480477035
0.03663395484909415,-0.9015891002491117,0.0786111643537879,-2.097908841446042
0.03663395484909415,-0.9015891002491117,0.08388020098209381,-2.097908841446042
0.03663395484909415,-0.9015891002491117,0.0786111643537879,-2.097908841446042
0.031361295841634274,-0.9068596549332142,0.0786111643537879,-2.097908841446042
0.031361295841634274,-0.9068596549332142,0.0786111643537879,-2.092638480477035
0.03663395484909415,-0.9121302096173167,0.0786111643537879,-2.092638480477035
0.03663395484909415,-0.9121302096173167,0.0786111643537879,-2.092638480477035
0.031361295841634274,-0.9068596549332142,0.0786111643537879,-2.087368119508028
0.031361295841634274,-0.9068596549332142,0.0786111643537879,-2.092638480477035
0.03663395484909415,-0.9068596549332142,0.08388020098209381,-2.087368119508028
0.03663395484909415,-0.9068596549332142,0.08388020098209381,-2.092638480477035
0.031361295841634274,-0.9121302096173167,0.08388020098209381,-2.092638480477035
0.03663395484909415,-0.9121302096173167,0.08388020098209381,-2.092638480477035
0.031361295841634274,-0.9174007643014193,0.0786111643537879,-2.087368119508028
0.031361295841634274,-0.9174007643014193,0.08388020098209381,-2.087368119508028
0.03663395484909415,-0.9121302096173167,0.0786111643537879,-2.082097758539021
0.031361295841634274,-0.9121302096173167,0.0786111643537879,-2.082097758539021
0.03663395484909415,-0.9121302096173167,0.08388020098209381,-2.082097758539021
0.03663395484909415,-0.9068596549332142,0.08388020098209381,-2.082097758539021
0.03663395484909415,-0.9068596549332142,0.0786111643537879,-2.082097758539021
0.03663395484909415,-0.9068596549332142,0.0786111643537879,-2.082097758539021
0.03663395484909415,-0.9068596549332142,0.08388020098209381,-2.082097758539021
0.03663395484909415,-0.9068596549332142,0.08388020098209381,-2.082097758539021
0.03663395484909415,-0.9068596549332142,0.0786111643537879,-2.082097758539021
0.03663395484909415,-0.9121302096173167,0.08388020098209381,-2.076827397570014
0.031361295841634274,-0.9174007643014193,0.0786111643537879,-2.076827397570014
0.03663395484909415,-0.9226713189855218,0.08388020098209381,-2.082097758539021
0.03663395484909415,-0.9226713189855218,0.08388020098209381,-2.082097758539021
0.03663395484909415,-0.9226713189855218,0.08388020098209381,-2.082097758539021
0.031361295841634274,-0.9226713189855218,0.0786111643537879,-2.082097758539021
0.03663395484909415,-0.9226713189855218,0.08388020098209381,-2.087368119508028
0.031361295841634274,-0.9226713189855218,0.0786111643537879,-2.087368119508028
0.03663395484909415,-0.9279418736696243,0.08388020098209381,-2.092638480477035
0.031361295841634274,-0.9226713189855218,0.0786111643537879,-2.087368119508028
0.031361295841634274,-0.9226713189855218,0.08388020098209381,-2.087368119508028
0.031361295841634274,-0.9279418736696243,0.0786111643537879,-2.087368119508028
0.03663395484909415,-0.9226713189855218,0.0786111643537879,-2.087368119508028
0.03663395484909415,-0.9174007643014193,0.0786111643537879,-2.082097758539021
0.03663395484909415,-0.9121302096173167,0.08388020098209381,-2.071557036601007
0.03663395484909415,-0.9068596549332142,0.0786111643537879,-2.066286675632
0.03663395484909415,-0.9068596549332142,0.08388020098209381,-2.066286675632
0.03663395484909415,-0.9121302096173167,0.08388020098209381,-2.066286675632
0.031361295841634274,-0.9226713189855218,0.08388020098209381,-2.071557036601007
0.03663395484909415,-0.9226713189855218,0.0786111643537879,-2.071557036601007
0.03663395484909415,-0.9279418736696243,0.0786111643537879,-2.071557036601007
0.031361295841634274,-0.9279418736696243,0.0786111643537879,-2.071557036601007
0.031361295841634274,-0.9279418736696243,0.08388020098209381,-2.071557036601007
0.03663395484909415,-0.9279418736696243,0.0786111643537879,-2.076827397570014
0.031361295841634274,-0.9279418736696243,0.0786111643537879,-2.082097758539021
0.03663395484909415,-0.9332124283537269,0.0786111643537879,-2.076827397570014
0.03663395484909415,-0.9279418736696243,0.0786111643537879,-2.071557036601007
0.031361295841634274,-0.9226713189855218,0.0786111643537879,-2.066286675632
0.03663395484909415,-0.9226713189855218,0.0786111643537879,-2.066286675632
0.03663395484909415,-0.9174007643014193,0.08388020098209381,-2.066286675632
0.03663395484909415,-0.9174007643014193,0.08388020098209381,-2.066286675632
0.03663395484909415,-0.9174007643014193,0.0786111643537879,-2.066286675632
0.03663395484909415,-0.9226713189855218,0.0786111643537879,-2.066286675632
0.031361295841634274,-0.9174007643014193,0.0786111643537879,-2.071557036601007
0.03663395484909415,-0.9174007643014193,0.08388020098209381,-2.071557036601007
0.03663395484909415,-0.9174007643014193,0.0786111643537879,-2.071557036601007
0.03663395484909415,-0.9279418736696243,0.08388020098209381,-2.071557036601007
0.031361295841634274,-0.9226713189855218,0.08388020098209381,-2.076827397570014
0.03663395484909415,-0.9226713189855218,0.08388020098209381,-2.082097758539021
0.03663395484909415,-0.9226713189855218,0.08388020098209381,-2.076827397570014
0.03663395484909415,-0.9226713189855218,0.0786111643537879,-2.082097758539021
0.03663395484909415,-0.9174007643014193,0.0786111643537879,-2.076827397570014
0.03663395484909415,-0.9121302096173167,0.0786111643537879,-2.082097758539021
0.03663395484909415,-0.9068596549332142,0.0786111643537879,-2.082097758539021
0.031361295841634274,-0.9068596549332142,0.0786111643537879,-2.082097758539021
0.031361295841634274,-0.9015891002491117,0.08388020098209381,-2.087368119508028
0.03663395484909415,-0.8963185455650091,0.0786111643537879,-2.087368119508028
0.031361295841634274,-0.9015891002491117,0.0786111643537879,-2.087368119508028
0.03663395484909415,-0.9068596549332142,0.0786111643537879,-2.087368119508028
0.03663395484909415,-0.9068596549332142,0.0786111643537879,-2.087368119508028
0.03663395484909415,-0.9174007643014193,0.0786111643537879,-2.087368119508028
0.031361295841634274,-0.9226713189855218,0.08388020098209381,-2.087368119508028
0.031361295841634274,-0.9121302096173167,0.08388020098209381,-2.082097758539021
0.031361295841634274,-0.9068596549332142,0.08388020098209381,-2.071557036601007
0.03663395484909415,-0.9068596549332142,0.08388020098209381,-2.066286675632
0.03663395484909415,-0.9121302096173167,0.0786111643537879,-2.066286675632
0.03663395484909415,-0.9121302096173167,0.0786111643537879,-2.061016314662993
0.03663395484909415,-0.9121302096173167,0.0786111643537879,-2.066286675632
0.031361295841634274,-0.9174007643014193,0.0786111643537879,-2.066286675632
0.03663395484909415,-0.9121302096173167,0.08388020098209381,-2.071557036601007
0.03663395484909415,-0.9015891002491117,0.08388020098209381,-2.076827397570014
0.031361295841634274,-0.8963185455650091,0.08388020098209381,-2.076827397570014
0.03663395484909415,-0.9015891002491117,0.0786111643537879,-2.082097758539021
0.03663395484909415,-0.9068596549332142,0.0786111643537879,-2.087368119508028
0.03663395484909415,-0.8963185455650091,0.0786111643537879,-2.082097758539021
0.03663395484909415,-0.8910479908809066,0.08388020098209381,-2.087368119508028
0.031361295841634274,-0.8910479908809066,0.0786111643537879,-2.087368119508028
0.031361295841634274,-0.9015891002491117,0.0786111643537879,-2.092638480477035
0.03663395484909415,-0.9121302096173167,0.0786111643537879,-2.087368119508028
0.03663395484909415,-0.9174007643014193,0.08388020098209381,-2.092638480477035
0.03663395484909415,-0.9174007643014193,0.08388020098209381,-2.092638480477035
0.031361295841634274,-0.9174007643014193,0.0786111643537879,-2.097908841446042
0.03663395484909415,-0.9174007643014193,0.08388020098209381,-2.092638480477035
0.03663395484909415,-0.9174007643014193,0.08388020098209381,-2.092638480477035
0.03663395484909415,-0.9226713189855218,0.08388020098209381,-2.097908841446042
0.03663395484909415,-0.9279418736696243,0.08388020098209381,-2.097908841446042
0.03663395484909415,-0.9279418736696243,0.08388020098209381,-2.097908841446042
0.03663395484909415,-0.9279418736696243,0.0786111643537879,-2.097908841446042
0.03663395484909415,-0.9279418736696243,0.0786111643537879,-2.097908841446042
0.03663395484909415,-0.9279418736696243,0.0786111643537879,-2.097908841446042
0.031361295841634274,-0.9226713189855218,0.0786111643537879,-2.097908841446042
0.03663395484909415,-0.9226713189855218,0.0786111643537879,-2.097908841446042
0.031361295841634274,-0.9174007643014193,0.08388020098209381,-2.103179202415049
0.03663395484909415,-0.9174007643014193,0.0786111643537879,-2.103179202415049
0.03663395484909415,-0.9226713189855218,0.0786111643537879,-2.103179202415049
0.03663395484909415,-0.9279418736696243,0.08388020098209381,-2.103179202415049
0.03663395484909415,-0.9384829830378294,0.08388020098209381,-2.103179202415049
0.031361295841634274,-0.9437535377219319,0.0786111643537879,-2.108449563384056
0.03663395484909415,-0.9437535377219319,0.0786111643537879,-2.108449563384056
0.031361295841634274,-0.9384829830378294,0.08388020098209381,-2.108449563384056
0.031361295841634274,-0.9279418736696243,0.08388020098209381,-2.113719924353063
0.03663395484909415,-0.9174007643014193,0.0786111643537879,-2.113719924353063
0.03663395484909415,-0.9174007643014193,0.08388020098209381,-2.113719924353063
0.031361295841634274,-0.9174007643014193,0.0786111643537879,-2.113719924353063
0.03663395484909415,-0.9226713189855218,0.0786111643537879,-2.108449563384056
0.03663395484909415,-0.9279418736696243,0.0786111643537879,-2.108449563384056
0.03663395484909415,-0.9226713189855218,0.0786111643537879,-2.113719924353063
0.031361295841634274,-0.9121302096173167,0.08388020098209381,-2.113719924353063
0.03663395484909415,-0.9174007643014193,0.0786111643537879,-2.113719924353063
0.03663395484909415,-0.9226713189855218,0.08388020098209381,-2.113719924353063
0.03663395484909415,-0.9226713189855218,0.0786111643537879,-2.108449563384056
0.031361295841634274,-0.9226713189855218,0.0786111643537879,-2.108449563384056
0.03663395484909415,-0.9226713189855218,0.08388020098209381,-2.108449563384056
0.03663395484909415,-0.9121302096173167,0.0786111643537879,-2.103179202415049
0.031361295841634274,-0.9121302096173167,0.0786111643537879,-2.108449563384056
0.03663395484909415,-0.9226713189855218,0.08388020098209381,-2.108449563384056
0.03663395484909415,-0.9279418736696243,0.0786111643537879,-2.103179202415049
0.03663395484909415,-0.9279418736696243,0.0786111643537879,-2.097908841446042
0.03663395484909415,-0.9279418736696243,0.0786111643537879,-2.097908841446042
0.03663395484909415,-0.9279418736696243,0.0786111643537879,-2.097908841446042
0.031361295841634274,-0.9226713189855218,0.0786111643537879,-2.097908841446042
0.03663395484909415,-0.9121302096173167,0.0786111643537879,-2.097908841446042
0.031361295841634274,-0.9121302096173167,0.0786111643537879,-2.097908841446042
0.031361295841634274,-0.9015891002491117,0.08388020098209381,-2.097908841446042
0.031361295841634274,-0.9015891002491117,0.08388020098209381,-2.103179202415049
0.03663395484909415,-0.8963185455650091,0.0786111643537879,-2.103179202415049
0.03663395484909415,-0.9015891002491117,0.0786111643537879,-2.103179202415049
0.03663395484909415,-0.8963185455650091,0.0786111643537879,-2.103179202415049
0.03663395484909415,-0.9015891002491117,0.08388020098209381,-2.103179202415049
0.031361295841634274,-0.9068596549332142,0.0786111643537879,-2.103179202415049
0.03663395484909415,-0.9174007643014193,0.0786111643537879,-2.103179202415049
0.03663395484909415,-0.9174007643014193,0.0786111643537879,-2.097908841446042
0.03663395484909415,-0.9121302096173167,0.0786111643537879,-2.097908841446042
0.031361295841634274,-0.9068596549332142,0.08388020098209381,-2.097908841446042
0.031361295841634274,-0.9015891002491117,0.0786111643537879,-2.097908841446042
0.031361295841634274,-0.9015891002491117,0.0786111643537879,-2.092638480477035
0.03663395484909415,-0.9068596549332142,0.0786111643537879,-2.087368119508028
0.03663395484909415,-0.8963185455650091,0.08388020098209381,-2.087368119508028
0.031361295841634274,-0.9015891002491117,0.0786111643537879,-2.092638480477035
0.03663395484909415,-0.9015891002491117,0.0786111643537879,-2.092638480477035
0.03663395484909415,-0.8963185455650091,0.08388020098209381,-2.092638480477035
0.031361295841634274,-0.9015891002491117,0.0786111643537879,-2.092638480477035
0.03663395484909415,-0.9068596549332142,0.0786111643537879,-2.092638480477035
0.031361295841634274,-0.9068596549332142,0.0786111643537879,-2.092638480477035
0.03663395484909415,-0.9068596549332142,0.08388020098209381,-2.092638480477035
0.03663395484909415,-0.9015891002491117,0.08388020098209381,-2.092638480477035
0.03663395484909415,-0.8963185455650091,0.08388020098209381,-2.092638480477035
0.031361295841634274,-0.8910479908809066,0.0786111643537879,-2.087368119508028
0.031361295841634274,-0.8963185455650091,0.0786111643537879,-2.087368119508028
0.03663395484909415,-0.8910479908809066,0.08388020098209381,-2.087368119508028
0.031361295841634274,-0.8910479908809066,0.0786111643537879,-2.082097758539021
0.03663395484909415,-0.8910479908809066,0.08388020098209381,-2.082097758539021
0.03663395484909415,-0.8963185455650091,0.0786111643537879,-2.082097758539021
0.031361295841634274,-0.8910479908809066,0.08388020098209381,-2.087368119508028
0.03663395484909415,-0.8963185455650091,0.08388020098209381,-2.087368119508028
0.03663395484909415,-0.8910479908809066,0.0786111643537879,-2.087368119508028
0.031361295841634274,-0.885777436196804,0.08388020098209381,-2.092638480477035
0.031361295841634274,-0.885777436196804,0.0786111643537879,-2.092638480477035
0.03663395484909415,-0.8805068815127015,0.08388020098209381,-2.103179202415049
0.03663395484909415,-0.8805068815127015,0.08388020098209381,-2.097908841446042
0.031361295841634274,-0.8805068815127015,0.08388020098209381,-2.097908841446042
0.03663395484909415,-0.885777436196804,0.08388020098209381,-2.097908841446042
0.03663395484909415,-0.885777436196804,0.08388020098209381,-2.103179202415049
0.03663395484909415,-0.8805068815127015,0.08388020098209381,-2.103179202415049
0.03663395484909415,-0.8805068815127015,0.0786111643537879,-2.103179202415049
0.03663395484909415,-0.8805068815127015,0.0786111643537879,-2.103179202415049
0.031361295841634274,-0.8805068815127015,0.08388020098209381,-2.108449563384056
0.03663395484909415,-0.8805068815127015,0.0786111643537879,-2.108449563384056
0.03663395484909415,-0.8805068815127015,0.0786111643537879,-2.108449563384056
0.031361295841634274,-0.8805068815127015,0.08388020098209381,-2.108449563384056
0.03663395484909415,-0.8805068815127015,0.0786111643537879,-2.108449563384056
0.031361295841634274,-0.8805068815127015,0.0786111643537879,-2.113719924353063
0.03663395484909415,-0.8805068815127015,0.0786111643537879,-2.113719924353063
0.03663395484909415,-0.8805068815127015,0.0786111643537879,-2.113719924353063
0.03663395484909415,-0.885777436196804,0.0786111643537879,-2.113719924353063
